CLOSED
Version	0.4
Run	870
Instrument	2950 TGA       V5.4A
Module	TGA 1000 øC
Sample	2023_07_11_alumel_calib_1cpm
Size	59.7340	mg
Method	50C to 300C at 1 cpm
Operator	SBK
Comment	2023_07_11_alumel_calib_1cpm
Xcomment	Pan: Platinum           Gas1: Nitrogen  40          Gas2: Nitrogen  40
Text	2023_07_11_alumel_calib_1cpm
Text	Calibration with alumel wire and magnet
Kcell	1.00000
TempCal	2	pts	156.68	152.50,	376.53	354.00
Thresholds	0.050	0.0000
Controls	Gas 1  Event Off  Sampling 2.0 sec/pt
Nsig	3
Sig1	Time (min)
Sig2	Temperature (øC)
Sig3	Weight (mg)
Date	11-Jul-23
Time	14:21
File	C:\TA\Data\TGA\Skyler\2023_07_11_alumel_calib_1cpm.001
OrgFile	C:\TA\Data\TGA\Skyler\2023_07_11_alumel_calib_1cpm.001
StartOfData
0.0000000	50.08008	59.73291
0.03266667	50.08370	59.73313
0.06600000	50.08762	59.73330
0.09933334	50.09665	59.73342
0.1326666	50.10689	59.73350
0.1660000	50.11981	59.73362
0.1993334	50.13346	59.73362
0.2325000	50.14994	59.73374
0.2658333	50.16781	59.73375
0.2991667	50.18600	59.73370
0.3325000	50.20650	59.73386
0.3658333	50.22872	59.73381
0.3991667	50.24922	59.73386
0.4325000	50.27421	59.73389
0.4658333	50.29890	59.73383
0.4991667	50.32553	59.73379
0.5325000	50.35067	59.73379
0.5658332	50.37744	59.73374
0.5991668	50.40434	59.73377
0.6325000	50.43137	59.73380
0.6658334	50.46033	59.73390
0.6991668	50.48989	59.73390
0.7325000	50.51938	59.73386
0.7658334	50.54898	59.73384
0.7991668	50.58048	59.73386
0.8325000	50.61098	59.73384
0.8658334	50.64171	59.73374
0.8991668	50.67224	59.73371
0.9325000	50.70393	59.73383
0.9658332	50.73662	59.73388
0.9991668	50.76964	59.73380
1.032500	50.80264	59.73386
1.066167	50.83480	59.73388
1.099500	50.86728	59.73387
1.132834	50.90009	59.73383
1.166167	50.93288	59.73378
1.199500	50.96637	59.73382
1.232834	50.99910	59.73385
1.266167	51.03138	59.73380
1.299500	51.06384	59.73383
1.332833	51.09800	59.73383
1.366167	51.13086	59.73388
1.399500	51.16347	59.73394
1.432833	51.19618	59.73388
1.466166	51.22878	59.73388
1.499500	51.26362	59.73388
1.532833	51.29829	59.73385
1.566167	51.33156	59.73381
1.599334	51.36478	59.73380
1.633500	51.39813	59.73386
1.667666	51.43238	59.73391
1.701000	51.46516	59.73389
1.734333	51.49842	59.73394
1.767666	51.53216	59.73392
1.802666	51.56869	59.73389
1.837666	51.60356	59.73385
1.871000	51.63648	59.73386
1.904334	51.67024	59.73389
1.937666	51.70154	59.73384
1.971834	51.73522	59.73381
2.006000	51.76894	59.73384
2.039334	51.79992	59.73389
2.072666	51.83170	59.73392
2.106000	51.86418	59.73391
2.140167	51.89710	59.73394
2.174333	51.93194	59.73394
2.207666	51.96381	59.73390
2.241000	51.99602	59.73391
2.274333	52.02919	59.73389
2.308500	52.06143	59.73394
2.342666	52.09496	59.73394
2.376000	52.12791	59.73394
2.409333	52.15969	59.73388
2.442833	52.19150	59.73389
2.477833	52.22535	59.73388
2.512834	52.25933	59.73394
2.546167	52.29184	59.73404
2.579500	52.32422	59.73404
2.612833	52.35670	59.73398
2.647000	52.39078	59.73403
2.681167	52.42416	59.73400
2.714500	52.45691	59.73395
2.747833	52.48982	59.73400
2.781166	52.52406	59.73403
2.815333	52.55962	59.73416
2.849500	52.59414	59.73410
2.882833	52.62755	59.73394
2.916167	52.66132	59.73393
2.949500	52.69574	59.73388
2.983667	52.73032	59.73386
3.017833	52.76470	59.73396
3.051167	52.79887	59.73404
3.084500	52.83401	59.73401
3.117833	52.86724	59.73399
3.152833	52.90278	59.73398
3.187833	52.93787	59.73400
3.221000	52.97260	59.73408
3.254333	53.00604	59.73414
3.287666	53.03896	59.73413
3.321834	53.07504	59.73418
3.356000	53.11048	59.73422
3.389334	53.14426	59.73420
3.422666	53.17840	59.73422
3.456000	53.21266	59.73422
3.490166	53.24684	59.73418
3.524333	53.28004	59.73416
3.557666	53.31062	59.73412
3.591000	53.34217	59.73413
3.624333	53.37502	59.73416
3.658500	53.40718	59.73418
3.692666	53.43882	59.73418
3.726000	53.47127	59.73421
3.759334	53.50492	59.73422
3.792666	53.53760	59.73429
3.827667	53.57160	59.73426
3.862666	53.60693	59.73424
3.896000	53.64038	59.73426
3.929334	53.67344	59.73426
3.962666	53.70797	59.73428
3.996000	53.74212	59.73430
4.029333	53.77491	59.73420
4.062667	53.80875	59.73432
4.096000	53.84180	59.73432
4.129334	53.87672	59.73428
4.162666	53.91003	59.73438
4.196000	53.94328	59.73430
4.229334	53.97860	59.73430
4.262666	54.01284	59.73436
4.296000	54.04539	59.73438
4.329334	54.07870	59.73438
4.362666	54.11192	59.73437
4.396000	54.14500	59.73435
4.429333	54.17822	59.73438
4.462666	54.21192	59.73434
4.496000	54.24446	59.73434
4.529333	54.27690	59.73435
4.562667	54.31096	59.73440
4.596000	54.34375	59.73438
4.629334	54.37769	59.73448
4.662666	54.41140	59.73451
4.696000	54.44500	59.73450
4.729334	54.47654	59.73441
4.762666	54.50922	59.73435
4.796167	54.54253	59.73438
4.829500	54.57660	59.73440
4.862833	54.61054	59.73440
4.896167	54.64526	59.73437
4.929500	54.67800	59.73437
4.962833	54.71023	59.73428
4.996166	54.74329	59.73435
5.029500	54.77744	59.73447
5.062833	54.81082	59.73448
5.096166	54.84379	59.73437
5.129500	54.87681	59.73437
5.162833	54.90997	59.73442
5.196166	54.94244	59.73448
5.229500	54.97379	59.73460
5.262832	55.00724	59.73455
5.296168	55.04052	59.73449
5.329500	55.07317	59.73442
5.362832	55.10657	59.73434
5.396168	55.13995	59.73430
5.429500	55.17416	59.73432
5.462832	55.20801	59.73438
5.496166	55.24270	59.73445
5.529500	55.27666	59.73442
5.562832	55.30991	59.73438
5.595832	55.34438	59.73440
5.629500	55.37776	59.73447
5.662832	55.41199	59.73448
5.696166	55.44478	59.73446
5.729500	55.47900	59.73452
5.762832	55.51318	59.73450
5.796168	55.54817	59.73446
5.829500	55.58072	59.73448
5.862832	55.61506	59.73450
5.896168	55.64874	59.73449
5.929500	55.68159	59.73450
5.962832	55.71574	59.73458
5.996166	55.74841	59.73453
6.029500	55.78108	59.73455
6.062832	55.81465	59.73457
6.096166	55.84768	59.73457
6.129500	55.88196	59.73457
6.162832	55.91650	59.73455
6.196166	55.94941	59.73455
6.229500	55.98303	59.73461
6.262832	56.01530	59.73461
6.296168	56.04844	59.73457
6.329500	56.08236	59.73462
6.362832	56.11704	59.73464
6.396168	56.15016	59.73463
6.429500	56.18135	59.73461
6.462832	56.21344	59.73460
6.495834	56.24605	59.73461
6.529166	56.27876	59.73465
6.562500	56.31260	59.73472
6.595834	56.34476	59.73484
6.629166	56.37757	59.73476
6.662500	56.41204	59.73476
6.695832	56.44621	59.73476
6.729334	56.48026	59.73479
6.762666	56.51254	59.73480
6.796000	56.54700	59.73484
6.829334	56.57945	59.73482
6.862666	56.61246	59.73490
6.896000	56.64702	59.73486
6.929334	56.68025	59.73480
6.962666	56.71448	59.73476
6.996000	56.74814	59.73478
7.029334	56.78282	59.73482
7.062668	56.81634	59.73485
7.096000	56.84724	59.73487
7.129334	56.87960	59.73490
7.162668	56.91363	59.73487
7.196000	56.94714	59.73490
7.229334	56.98081	59.73493
7.262666	57.01310	59.73488
7.296000	57.04539	59.73490
7.329334	57.07864	59.73496
7.362666	57.11116	59.73500
7.396000	57.14368	59.73497
7.429334	57.17470	59.73494
7.462666	57.20815	59.73496
7.496000	57.24134	59.73502
7.529334	57.27489	59.73501
7.562668	57.30625	59.73502
7.596000	57.33931	59.73500
7.629334	57.37295	59.73514
7.662668	57.40396	59.73504
7.696000	57.43658	59.73501
7.729334	57.46994	59.73496
7.762666	57.50326	59.73496
7.796000	57.53762	59.73497
7.829334	57.57039	59.73508
7.862666	57.60369	59.73514
7.896000	57.63876	59.73510
7.929334	57.67280	59.73506
7.962500	57.70644	59.73511
7.995834	57.73948	59.73515
8.029166	57.77266	59.73509
8.062500	57.80892	59.73510
8.096168	57.84343	59.73518
8.129500	57.87718	59.73511
8.162832	57.91010	59.73504
8.196168	57.94141	59.73504
8.229500	57.97350	59.73508
8.262832	58.00524	59.73511
8.296166	58.03840	59.73509
8.329500	58.07214	59.73510
8.362832	58.10446	59.73518
8.396168	58.13821	59.73522
8.429500	58.17240	59.73521
8.462832	58.20608	59.73524
8.496166	58.23874	59.73516
8.529500	58.27008	59.73524
8.562834	58.30382	59.73528
8.596168	58.33744	59.73528
8.629501	58.36970	59.73528
8.662832	58.40350	59.73523
8.696168	58.43661	59.73523
8.729500	58.47220	59.73521
8.762832	58.50634	59.73520
8.796166	58.53930	59.73526
8.829500	58.57266	59.73534
8.862832	58.60593	59.73541
8.896168	58.64059	59.73550
8.929500	58.67370	59.73551
8.962832	58.70812	59.73550
8.996166	58.74232	59.73540
9.029500	58.77624	59.73546
9.062834	58.80909	59.73550
9.096168	58.84238	59.73542
9.129501	58.87570	59.73540
9.162832	58.90968	59.73536
9.196168	58.94265	59.73538
9.229500	58.97428	59.73542
9.262832	59.00761	59.73542
9.295999	59.03976	59.73535
9.329334	59.07226	59.73545
9.362668	59.10509	59.73536
9.396834	59.13861	59.73536
9.431000	59.16991	59.73536
9.464334	59.20079	59.73536
9.497666	59.23186	59.73540
9.531000	59.26407	59.73540
9.565168	59.29769	59.73535
9.599334	59.33220	59.73530
9.632668	59.36672	59.73537
9.666000	59.40084	59.73550
9.699334	59.43532	59.73560
9.733499	59.46996	59.73574
9.767668	59.50449	59.73570
9.801000	59.53706	59.73562
9.834334	59.56952	59.73552
9.867668	59.60352	59.73559
9.902668	59.63736	59.73556
9.937668	59.67351	59.73564
9.971000	59.70739	59.73572
10.00433	59.74158	59.73568
10.03767	59.77780	59.73559
10.07183	59.81310	59.73567
10.10600	59.84769	59.73570
10.13933	59.88172	59.73565
10.17267	59.91421	59.73570
10.20600	59.94598	59.73562
10.24017	59.98007	59.73556
10.27433	60.01498	59.73558
10.30767	60.04861	59.73557
10.34100	60.08324	59.73562
10.37433	60.11842	59.73562
10.40850	60.15344	59.73562
10.44267	60.18720	59.73559
10.47600	60.22066	59.73550
10.50934	60.25416	59.73568
10.54266	60.28770	59.73576
10.57766	60.32351	59.73590
10.61267	60.36084	59.73582
10.64600	60.39318	59.73582
10.67934	60.42504	59.73580
10.71266	60.45955	59.73570
10.74684	60.49402	59.73566
10.78100	60.52678	59.73568
10.81433	60.55948	59.73560
10.84767	60.59340	59.73557
10.88100	60.62735	59.73579
10.91517	60.66223	59.73576
10.94934	60.69546	59.73565
10.98267	60.72988	59.73567
11.01600	60.76321	59.73566
11.04934	60.79539	59.73562
11.08350	60.82969	59.73569
11.11766	60.86480	59.73567
11.15100	60.89868	59.73575
11.18434	60.93172	59.73572
11.21766	60.96432	59.73565
11.25266	60.99796	59.73569
11.28766	61.03348	59.73575
11.32100	61.06780	59.73582
11.35433	61.10056	59.73585
11.38766	61.13471	59.73576
11.42184	61.16916	59.73574
11.45600	61.20447	59.73568
11.48934	61.23845	59.73574
11.52267	61.27129	59.73586
11.55600	61.30440	59.73586
11.59017	61.33984	59.73582
11.62434	61.37574	59.73578
11.65766	61.40892	59.73585
11.69100	61.44384	59.73597
11.72434	61.47747	59.73600
11.75850	61.51224	59.73589
11.79266	61.54610	59.73590
11.82600	61.57883	59.73590
11.85934	61.61224	59.73590
11.89266	61.64610	59.73585
11.92600	61.68079	59.73586
11.95934	61.71474	59.73590
11.99266	61.74905	59.73590
12.02600	61.78376	59.73589
12.05934	61.81684	59.73606
12.09266	61.84920	59.73610
12.12600	61.88294	59.73596
12.15934	61.91507	59.73593
12.19266	61.94778	59.73596
12.22600	61.97974	59.73598
12.25934	62.01215	59.73596
12.29266	62.04530	59.73588
12.32600	62.07900	59.73601
12.35934	62.11280	59.73610
12.39266	62.14605	59.73604
12.42600	62.17868	59.73606
12.45934	62.21187	59.73606
12.49266	62.24494	59.73609
12.52600	62.27955	59.73606
12.55934	62.31330	59.73598
12.59266	62.34644	59.73606
12.62600	62.37890	59.73605
12.65934	62.41141	59.73601
12.69266	62.44201	59.73594
12.72600	62.47621	59.73601
12.75934	62.51129	59.73605
12.79283	62.54422	59.73609
12.82617	62.57766	59.73614
12.85950	62.61060	59.73616
12.89284	62.64456	59.73615
12.92616	62.67782	59.73613
12.95950	62.71268	59.73614
12.99283	62.74550	59.73608
13.02617	62.78018	59.73612
13.05950	62.81360	59.73620
13.09283	62.84710	59.73626
13.12616	62.88135	59.73628
13.15950	62.91474	59.73629
13.19283	62.94961	59.73624
13.22617	62.98312	59.73620
13.25950	63.01574	59.73616
13.29283	63.04840	59.73610
13.32617	63.08312	59.73602
13.35950	63.11684	59.73601
13.39284	63.14924	59.73606
13.42616	63.18298	59.73600
13.45950	63.21690	59.73603
13.49283	63.25033	59.73612
13.52617	63.28422	59.73609
13.55933	63.31586	59.73616
13.59266	63.34901	59.73623
13.62600	63.38305	59.73623
13.65934	63.41613	59.73632
13.69266	63.45027	59.73639
13.72600	63.48364	59.73628
13.75934	63.51530	59.73622
13.79266	63.54884	59.73623
13.82600	63.58191	59.73629
13.85933	63.61462	59.73629
13.89266	63.64844	59.73628
13.92600	63.68212	59.73622
13.95934	63.71492	59.73623
13.99266	63.74798	59.73630
14.02600	63.78268	59.73629
14.05933	63.81613	59.73645
14.09266	63.84984	59.73645
14.12600	63.88276	59.73634
14.15934	63.91548	59.73638
14.19266	63.94877	59.73642
14.22600	63.98084	59.73639
14.25917	64.01370	59.73641
14.29250	64.04550	59.73644
14.32617	64.07932	59.73638
14.35950	64.11410	59.73646
14.39284	64.14900	59.73654
14.42616	64.18150	59.73648
14.45950	64.21296	59.73638
14.49283	64.24664	59.73630
14.52617	64.27854	59.73634
14.55950	64.31232	59.73637
14.59283	64.34662	59.73641
14.62616	64.38196	59.73644
14.65950	64.41479	59.73656
14.69283	64.44805	59.73646
14.72617	64.48072	59.73644
14.75950	64.51480	59.73646
14.79450	64.54824	59.73650
14.82950	64.58337	59.73657
14.86283	64.61720	59.73650
14.89617	64.65126	59.73649
14.92950	64.68525	59.73652
14.96367	64.71954	59.73658
14.99783	64.75307	59.73672
15.03117	64.78601	59.73672
15.06450	64.82028	59.73676
15.09783	64.85468	59.73676
15.13200	64.88806	59.73675
15.16600	64.92125	59.73668
15.19934	64.95214	59.73671
15.23267	64.98314	59.73668
15.26600	65.01732	59.73668
15.30017	65.05090	59.73675
15.33434	65.08360	59.73679
15.36766	65.11716	59.73682
15.40100	65.15235	59.73682
15.43433	65.18564	59.73684
15.46934	65.21921	59.73674
15.50434	65.25532	59.73666
15.53766	65.28926	59.73672
15.57100	65.32272	59.73670
15.60434	65.35656	59.73672
15.63867	65.39124	59.73691
15.67283	65.42364	59.73699
15.70616	65.45596	59.73674
15.73950	65.48788	59.73661
15.77283	65.52042	59.73668
15.80700	65.55386	59.73676
15.84117	65.58886	59.73684
15.87450	65.62509	59.73680
15.90784	65.65972	59.73680
15.94117	65.69381	59.73686
15.97516	65.72766	59.73688
16.00933	65.76160	59.73690
16.04266	65.79384	59.73682
16.07600	65.82644	59.73676
16.10933	65.86068	59.73680
16.14434	65.89541	59.73694
16.17934	65.93171	59.73694
16.21267	65.96614	59.73692
16.24600	65.99976	59.73686
16.27934	66.03374	59.73676
16.31350	66.06814	59.73670
16.34766	66.10200	59.73678
16.38100	66.13710	59.73678
16.41434	66.17226	59.73693
16.44766	66.20600	59.73696
16.48184	66.24072	59.73688
16.51600	66.27450	59.73680
16.54934	66.31030	59.73662
16.58266	66.34390	59.73661
16.61600	66.37824	59.73672
16.65017	66.41201	59.73692
16.68434	66.44308	59.73706
16.71766	66.47401	59.73706
16.75100	66.50618	59.73705
16.78434	66.53919	59.73710
16.81934	66.57349	59.73707
16.85434	66.60805	59.73702
16.88766	66.64069	59.73711
16.92100	66.67439	59.73709
16.95434	66.70791	59.73705
16.98850	66.74189	59.73705
17.02267	66.77465	59.73700
17.05600	66.80810	59.73699
17.08933	66.84118	59.73704
17.12267	66.87400	59.73699
17.15684	66.90844	59.73700
17.19100	66.94256	59.73704
17.22434	66.97532	59.73707
17.25767	67.00806	59.73713
17.29100	67.04116	59.73720
17.32516	67.07459	59.73720
17.35933	67.10922	59.73713
17.39266	67.14244	59.73708
17.42600	67.17510	59.73704
17.45934	67.20808	59.73719
17.49434	67.24221	59.73738
17.52934	67.27675	59.73743
17.56266	67.30782	59.73750
17.59600	67.34048	59.73730
17.62934	67.37290	59.73726
17.66350	67.40520	59.73722
17.69766	67.43878	59.73720
17.73100	67.47094	59.73717
17.76434	67.50515	59.73728
17.79767	67.53894	59.73728
17.83184	67.57388	59.73713
17.86617	67.60899	59.73710
17.89950	67.64292	59.73716
17.93283	67.67550	59.73730
17.96617	67.70766	59.73734
18.00034	67.74219	59.73736
18.03450	67.77684	59.73730
18.06784	67.81190	59.73730
18.10116	67.84534	59.73736
18.13450	67.87834	59.73732
18.16934	67.91472	59.73738
18.20434	67.95171	59.73738
18.23767	67.98546	59.73738
18.27100	68.01916	59.73745
18.30434	68.05372	59.73753
18.33850	68.09006	59.73750
18.37267	68.12574	59.73742
18.40600	68.16080	59.73734
18.43933	68.19428	59.73730
18.47266	68.22776	59.73730
18.50684	68.26209	59.73719
18.54100	68.29410	59.73730
18.57434	68.32708	59.73748
18.60766	68.36218	59.73752
18.64100	68.39616	59.73750
18.67517	68.42922	59.73748
18.70934	68.46250	59.73750
18.74266	68.49586	59.73754
18.77600	68.52866	59.73754
18.80934	68.56208	59.73754
18.84434	68.59741	59.73760
18.87934	68.63071	59.73785
18.91250	68.66310	59.73782
18.94583	68.69634	59.73769
18.97916	68.72985	59.73760
19.01283	68.76287	59.73772
19.04617	68.79606	59.73774
19.07950	68.82884	59.73774
19.11283	68.86291	59.73778
19.14616	68.89674	59.73770
19.18034	68.93103	59.73768
19.21433	68.96540	59.73779
19.24767	68.99846	59.73783
19.28100	69.03182	59.73786
19.31433	69.06606	59.73782
19.34850	69.09976	59.73780
19.38267	69.13366	59.73780
19.41600	69.16593	59.73782
19.44934	69.19915	59.73777
19.48266	69.23144	59.73774
19.51684	69.26504	59.73777
19.55100	69.29922	59.73778
19.58434	69.33115	59.73777
19.61766	69.36468	59.73789
19.65100	69.39739	59.73783
19.68600	69.43124	59.73784
19.72100	69.46518	59.73792
19.75417	69.49970	59.73789
19.78750	69.53258	59.73796
19.82083	69.56556	59.73803
19.85450	69.59954	59.73804
19.88783	69.63299	59.73812
19.92117	69.66597	59.73797
19.95450	69.70034	59.73796
19.98783	69.73286	59.73789
20.02200	69.76732	59.73800
20.05617	69.80085	59.73799
20.08950	69.83350	59.73794
20.12267	69.86725	59.73789
20.15600	69.90009	59.73785
20.19017	69.93468	59.73789
20.22434	69.96930	59.73793
20.25767	70.00280	59.73804
20.29100	70.03732	59.73805
20.32434	70.06884	59.73805
20.35850	70.10312	59.73811
20.39266	70.13721	59.73814
20.42600	70.17082	59.73818
20.45934	70.20403	59.73829
20.49266	70.23856	59.73832
20.52600	70.27197	59.73832
20.55934	70.30430	59.73832
20.59266	70.33955	59.73822
20.62600	70.37346	59.73820
20.65934	70.40653	59.73828
20.69266	70.43991	59.73828
20.72600	70.47085	59.73993
20.75917	70.50299	59.74224
20.79250	70.53394	59.74324
20.82583	70.56578	59.74366
20.85917	70.59869	59.74402
20.89250	70.63324	59.74425
20.92617	70.66524	59.74443
20.95950	70.69688	59.74446
20.99284	70.72969	59.74449
21.02617	70.76403	59.74450
21.05950	70.79861	59.74446
21.09283	70.83149	59.74456
21.12617	70.86780	59.74459
21.15950	70.90132	59.74456
21.19283	70.93566	59.74453
21.22600	70.96887	59.74458
21.25933	71.00355	59.74456
21.29266	71.03706	59.74467
21.32600	71.07110	59.74476
21.35933	71.10376	59.74468
21.39266	71.13813	59.74457
21.42600	71.17116	59.74463
21.45934	71.20384	59.74485
21.49266	71.23658	59.74500
21.52600	71.26936	59.74503
21.55934	71.30243	59.74504
21.59266	71.33710	59.74520
21.62600	71.37109	59.74520
21.65934	71.40447	59.74521
21.69266	71.43907	59.74515
21.72583	71.47382	59.74522
21.75917	71.50555	59.74516
21.79283	71.53852	59.74528
21.82617	71.57141	59.74528
21.85950	71.60426	59.74551
21.89284	71.63822	59.74555
21.92617	71.67309	59.74550
21.95950	71.70688	59.74551
21.99284	71.74120	59.74535
22.02600	71.77539	59.74516
22.05934	71.80828	59.74516
22.09266	71.84240	59.74510
22.12600	71.87622	59.74512
22.15934	71.91032	59.74511
22.19266	71.94324	59.74512
22.22600	71.97648	59.74505
22.25933	72.01012	59.74494
22.29266	72.04316	59.74488
22.32600	72.07651	59.74496
22.35933	72.11034	59.74507
22.39266	72.14350	59.74521
22.42600	72.17694	59.74520
22.45934	72.21025	59.74524
22.49266	72.24372	59.74512
22.52600	72.27750	59.74515
22.55934	72.31131	59.74516
22.59266	72.34516	59.74508
22.62600	72.38006	59.74507
22.65934	72.41363	59.74503
22.69266	72.44770	59.74497
22.72600	72.48034	59.74511
22.75933	72.51230	59.74511
22.79266	72.54562	59.74511
22.82600	72.57866	59.74524
22.85933	72.61040	59.74524
22.89266	72.64422	59.74530
22.92600	72.67805	59.74530
22.95934	72.71021	59.74519
22.99266	72.74266	59.74518
23.02600	72.77498	59.74514
23.05934	72.80706	59.74524
23.09266	72.83968	59.74530
23.12600	72.87218	59.74521
23.15934	72.90571	59.74516
23.19266	72.94006	59.74520
23.22766	72.97530	59.74511
23.26266	73.00981	59.74518
23.29600	73.04390	59.74524
23.32934	73.07860	59.74533
23.36267	73.11257	59.74524
23.39684	73.14649	59.74526
23.43100	73.18108	59.74532
23.46434	73.21424	59.74541
23.49766	73.24739	59.74536
23.53100	73.28006	59.74526
23.56516	73.31406	59.74539
23.59934	73.34844	59.74549
23.63267	73.38164	59.74543
23.66600	73.41464	59.74543
23.69934	73.44886	59.74530
23.73350	73.48316	59.74531
23.76766	73.51731	59.74546
23.80100	73.55088	59.74546
23.83434	73.58478	59.74546
23.86766	73.61751	59.74556
23.90266	73.65222	59.74560
23.93766	73.68610	59.74553
23.97100	73.72110	59.74557
24.00434	73.75303	59.74562
24.03766	73.78684	59.74556
24.07183	73.82299	59.74564
24.10617	73.85668	59.74555
24.13950	73.88925	59.74550
24.17283	73.92125	59.74560
24.20617	73.95361	59.74563
24.24034	73.98638	59.74560
24.27450	74.02056	59.74560
24.30783	74.05321	59.74562
24.34117	74.08651	59.74568
24.37450	74.12098	59.74568
24.40867	74.15503	59.74580
24.44283	74.19053	59.74592
24.47617	74.22310	59.74590
24.50933	74.25600	59.74578
24.54266	74.28865	59.74570
24.57766	74.32328	59.74555
24.61267	74.35834	59.74543
24.64600	74.39324	59.74551
24.67934	74.42754	59.74552
24.71267	74.46088	59.74545
24.74684	74.49500	59.74547
24.78100	74.52939	59.74559
24.81434	74.56304	59.74562
24.84766	74.59672	59.74580
24.88100	74.62920	59.74574
24.91516	74.66270	59.74570
24.94934	74.69756	59.74574
24.98266	74.73056	59.74579
25.01600	74.76202	59.74572
25.04934	74.79646	59.74570
25.08250	74.83032	59.74564
25.11583	74.86380	59.74564
25.14950	74.89688	59.74575
25.18283	74.93047	59.74572
25.21617	74.96372	59.74579
25.24950	74.99642	59.74596
25.28284	75.02921	59.74599
25.31616	75.06312	59.74594
25.34950	75.09720	59.74600
25.38284	75.12969	59.74604
25.41600	75.16212	59.74599
25.44934	75.19550	59.74580
25.48266	75.22958	59.74582
25.51600	75.26160	59.74588
25.54934	75.29514	59.74594
25.58266	75.32691	59.74594
25.61600	75.36075	59.74597
25.64934	75.39466	59.74605
25.68266	75.42800	59.74605
25.71600	75.46179	59.74611
25.74933	75.49462	59.74608
25.78266	75.52597	59.74597
25.81600	75.55887	59.74605
25.84933	75.59112	59.74621
25.88266	75.62460	59.74630
25.91600	75.65903	59.74632
25.94934	75.69264	59.74623
25.98266	75.72716	59.74621
26.01600	75.76324	59.74629
26.04934	75.79556	59.74623
26.08266	75.82862	59.74627
26.11600	75.86298	59.74630
26.14934	75.89394	59.74626
26.18266	75.92740	59.74611
26.21600	75.95976	59.74615
26.24933	75.99187	59.74631
26.28284	76.02442	59.74640
26.31616	76.05678	59.74638
26.34950	76.08940	59.74632
26.38284	76.12245	59.74639
26.41616	76.15598	59.74648
26.44950	76.19001	59.74645
26.48284	76.22300	59.74644
26.51617	76.25590	59.74646
26.54950	76.29001	59.74633
26.58284	76.32415	59.74639
26.61617	76.35670	59.74644
26.64917	76.38965	59.74638
26.68250	76.42441	59.74656
26.71583	76.45786	59.74656
26.74917	76.49160	59.74651
26.78250	76.52454	59.74659
26.81600	76.55738	59.74666
26.84933	76.59097	59.74663
26.88266	76.62426	59.74670
26.91600	76.65718	59.74660
26.94934	76.69045	59.74651
26.98266	76.72407	59.74663
27.01600	76.75710	59.74666
27.04934	76.79024	59.74668
27.08266	76.82446	59.74663
27.11600	76.85903	59.74661
27.14934	76.89384	59.74652
27.18266	76.92788	59.74657
27.21600	76.96137	59.74664
27.24933	76.99580	59.74662
27.28266	77.02807	59.74662
27.31600	77.06030	59.74663
27.34933	77.09264	59.74672
27.38266	77.12639	59.74674
27.41600	77.15955	59.74672
27.44934	77.19231	59.74680
27.48266	77.22515	59.74683
27.51600	77.25926	59.74666
27.54934	77.29234	59.74660
27.58266	77.32570	59.74662
27.61600	77.35855	59.74665
27.64934	77.39269	59.74662
27.68266	77.42675	59.74665
27.71600	77.46063	59.74662
27.74933	77.49413	59.74678
27.78350	77.52800	59.74684
27.81766	77.56132	59.74668
27.85100	77.59310	59.74684
27.88433	77.62676	59.74700
27.91766	77.66099	59.74696
27.95266	77.69462	59.74695
27.98767	77.73003	59.74684
28.02100	77.76440	59.74679
28.05434	77.79745	59.74674
28.08767	77.83015	59.74676
28.12183	77.86528	59.74690
28.15600	77.90105	59.74694
28.18934	77.93488	59.74696
28.22266	77.96913	59.74696
28.25600	78.00271	59.74690
28.29016	78.03744	59.74706
28.32434	78.07136	59.74717
28.35766	78.10420	59.74722
28.39100	78.13814	59.74726
28.42434	78.17130	59.74739
28.45850	78.20690	59.74746
28.49266	78.24048	59.74730
28.52600	78.27385	59.74720
28.55933	78.30718	59.74728
28.59266	78.34072	59.74730
28.62766	78.37566	59.74731
28.66266	78.41032	59.74730
28.69600	78.44302	59.74724
28.72934	78.47620	59.74740
28.76267	78.50953	59.74750
28.79600	78.54320	59.74760
28.82934	78.57563	59.74750
28.86267	78.60847	59.74752
28.89600	78.64136	59.74756
28.92934	78.67475	59.74766
28.96267	78.70810	59.74765
28.99600	78.74080	59.74768
29.02934	78.77476	59.74766
29.06266	78.80813	59.74761
29.09600	78.84130	59.74760
29.12934	78.87450	59.74761
29.16266	78.90882	59.74762
29.19584	78.94238	59.74773
29.22916	78.97549	59.74788
29.26250	79.00811	59.74788
29.29617	79.04275	59.74785
29.32950	79.07634	59.74768
29.36283	79.10979	59.74763
29.39617	79.14391	59.74770
29.42950	79.17688	59.74780
29.46283	79.20997	59.74781
29.49617	79.24234	59.74780
29.52950	79.27599	59.74786
29.56283	79.31030	59.74792
29.59617	79.34274	59.74780
29.62950	79.37456	59.74774
29.66284	79.40779	59.74778
29.69617	79.44109	59.74776
29.72950	79.47420	59.74770
29.76283	79.50774	59.74778
29.79617	79.54200	59.74786
29.82950	79.57550	59.74780
29.86283	79.60861	59.74780
29.89617	79.64212	59.74788
29.92950	79.67540	59.74784
29.96283	79.70974	59.74788
29.99617	79.74205	59.74790
30.02950	79.77490	59.74785
30.06283	79.80665	59.74778
30.09617	79.83945	59.74781
30.12950	79.87401	59.74773
30.16284	79.90647	59.74778
30.19617	79.94051	59.74780
30.22950	79.97250	59.74786
30.26283	80.00600	59.74795
30.29617	80.03989	59.74795
30.32950	80.07447	59.74804
30.36250	80.10679	59.74807
30.39584	80.14058	59.74793
30.42916	80.17382	59.74794
30.46250	80.20666	59.74800
30.49583	80.23960	59.74802
30.52917	80.27270	59.74814
30.56266	80.30406	59.74818
30.59600	80.33725	59.74809
30.62934	80.36997	59.74806
30.66266	80.40400	59.74809
30.69600	80.43668	59.74805
30.72934	80.47032	59.74813
30.76267	80.50414	59.74809
30.79600	80.53760	59.74812
30.82934	80.57036	59.74829
30.86267	80.60553	59.74820
30.89600	80.63775	59.74806
30.92934	80.67132	59.74809
30.96267	80.70441	59.74832
30.99600	80.73820	59.74829
31.02934	80.77138	59.74819
31.06266	80.80542	59.74832
31.09600	80.83826	59.74839
31.12934	80.87231	59.74839
31.16266	80.90601	59.74832
31.19600	80.93969	59.74826
31.22934	80.97265	59.74825
31.26267	81.00796	59.74822
31.29600	81.04042	59.74816
31.32934	81.07312	59.74829
31.36267	81.10730	59.74850
31.39600	81.13997	59.74849
31.42934	81.17457	59.74864
31.46267	81.20778	59.74878
31.49600	81.24074	59.74870
31.52934	81.27363	59.74874
31.56266	81.30682	59.74872
31.59600	81.34049	59.74876
31.62934	81.37428	59.74887
31.66350	81.40812	59.74892
31.69766	81.44209	59.74894
31.73100	81.47532	59.74889
31.76434	81.50796	59.74893
31.79766	81.54075	59.74895
31.83184	81.57485	59.74894
31.86600	81.60858	59.74900
31.89950	81.64172	59.74896
31.93284	81.67712	59.74899
31.96617	81.71142	59.74895
32.00033	81.74595	59.74892
32.03450	81.78008	59.74894
32.06784	81.81387	59.74894
32.10117	81.84818	59.74891
32.13450	81.87951	59.74893
32.16950	81.91425	59.74887
32.20450	81.94970	59.74876
32.23784	81.98243	59.74864
32.27117	82.01670	59.74871
32.30450	82.05061	59.74871
32.33867	82.08701	59.74884
32.37283	82.12004	59.74890
32.40616	82.15441	59.74895
32.43916	82.18664	59.74895
32.47250	82.21996	59.74910
32.50583	82.25312	59.74918
32.53916	82.28638	59.74914
32.57250	82.31934	59.74916
32.60584	82.35337	59.74913
32.63916	82.38691	59.74916
32.67250	82.42028	59.74912
32.70584	82.45180	59.74910
32.73916	82.48582	59.74921
32.77283	82.51926	59.74928
32.80617	82.55313	59.74925
32.83950	82.58621	59.74926
32.87283	82.62047	59.74922
32.90616	82.65447	59.74922
32.93950	82.68812	59.74910
32.97283	82.72210	59.74910
33.00617	82.75379	59.74922
33.03950	82.78672	59.74937
33.07283	82.81965	59.74940
33.10617	82.85156	59.74932
33.13950	82.88476	59.74938
33.17283	82.91705	59.74942
33.20616	82.95038	59.74948
33.23950	82.98207	59.74948
33.27283	83.01694	59.74944
33.30583	83.04890	59.74944
33.33916	83.08106	59.74944
33.37250	83.11387	59.74932
33.40584	83.14819	59.74916
33.43933	83.18336	59.74902
33.47267	83.21625	59.74886
33.50600	83.25055	59.74882
33.53933	83.28644	59.74902
33.57266	83.31994	59.74924
33.60600	83.35272	59.74934
33.63933	83.38563	59.74938
33.67267	83.41969	59.74946
33.70600	83.45326	59.74946
33.73933	83.48784	59.74941
33.77267	83.52132	59.74939
33.80600	83.55194	59.74932
33.83933	83.58382	59.74951
33.87266	83.61720	59.74963
33.90600	83.65042	59.74967
33.93933	83.68376	59.74976
33.97267	83.71722	59.74974
34.00600	83.75113	59.74963
34.03933	83.78486	59.74960
34.07266	83.81736	59.74966
34.10600	83.85019	59.74964
34.13933	83.88356	59.74967
34.17267	83.91661	59.74980
34.20600	83.94962	59.74976
34.23933	83.98286	59.74978
34.27267	84.01519	59.74975
34.30600	84.04889	59.74985
34.33933	84.08253	59.74988
34.37266	84.11414	59.74981
34.40600	84.14749	59.74980
34.43933	84.18110	59.74981
34.47267	84.21407	59.74984
34.50600	84.24644	59.74982
34.53933	84.27890	59.74986
34.57266	84.31168	59.74988
34.60600	84.34592	59.74995
34.63933	84.37862	59.74995
34.67267	84.41055	59.74992
34.70616	84.44426	59.74982
34.73950	84.47945	59.74974
34.77283	84.51632	59.74976
34.80617	84.55109	59.74980
34.83950	84.58426	59.75005
34.87283	84.61680	59.75015
34.90616	84.65018	59.75018
34.93916	84.68274	59.75012
34.97250	84.71493	59.75000
35.00600	84.74939	59.74990
35.03933	84.78308	59.75007
35.07266	84.81578	59.75022
35.10600	84.84947	59.75032
35.13933	84.88311	59.75026
35.17267	84.91699	59.75020
35.20683	84.95082	59.75019
35.24100	84.98412	59.75025
35.27434	85.01691	59.75029
35.30766	85.05049	59.75027
35.34100	85.08413	59.75024
35.37517	85.11718	59.75020
35.40933	85.15199	59.75012
35.44284	85.18569	59.75020
35.47617	85.21819	59.75027
35.50950	85.25201	59.75024
35.54450	85.28676	59.75032
35.57950	85.32122	59.75036
35.61250	85.35392	59.75040
35.64583	85.38770	59.75047
35.67933	85.41937	59.75057
35.71350	85.45293	59.75052
35.74766	85.48651	59.75048
35.78100	85.51906	59.75051
35.81433	85.55390	59.75062
35.84767	85.58631	59.75063
35.88183	85.61864	59.75063
35.91600	85.65276	59.75066
35.94934	85.68609	59.75066
35.98266	85.71900	59.75058
36.01600	85.75278	59.75062
36.05017	85.78649	59.75068
36.08433	85.82004	59.75079
36.11767	85.85422	59.75086
36.15100	85.88703	59.75088
36.18433	85.92124	59.75088
36.21933	85.95494	59.75088
36.25433	85.98965	59.75085
36.28766	86.02387	59.75089
36.32100	86.05761	59.75088
36.35450	86.09095	59.75090
36.38867	86.12403	59.75086
36.42283	86.15909	59.75088
36.45616	86.19211	59.75092
36.48950	86.22672	59.75090
36.52283	86.26171	59.75082
36.55700	86.29587	59.75090
36.59117	86.33097	59.75092
36.62417	86.36559	59.75094
36.65750	86.39944	59.75096
36.69083	86.43231	59.75095
36.72500	86.46684	59.75092
36.75934	86.50009	59.75092
36.79266	86.53332	59.75094
36.82600	86.56756	59.75113
36.85933	86.60004	59.75108
36.89433	86.63499	59.75107
36.92933	86.67053	59.75113
36.96266	86.70360	59.75109
36.99600	86.73689	59.75100
37.02933	86.77079	59.75110
37.06267	86.80496	59.75110
37.09600	86.83863	59.75108
37.12933	86.87038	59.75112
37.16284	86.90445	59.75117
37.19617	86.93785	59.75118
37.23033	86.97305	59.75121
37.26450	87.00781	59.75127
37.29783	87.04181	59.75130
37.33116	87.07562	59.75132
37.36450	87.10916	59.75130
37.39750	87.14304	59.75125
37.43083	87.17620	59.75134
37.46416	87.20969	59.75144
37.49766	87.24212	59.75147
37.53100	87.27538	59.75145
37.56433	87.30978	59.75146
37.59767	87.34394	59.75144
37.63100	87.37841	59.75141
37.66433	87.41119	59.75142
37.69766	87.44562	59.75148
37.73100	87.47806	59.75154
37.76433	87.51231	59.75151
37.79767	87.54616	59.75151
37.83116	87.57995	59.75148
37.86450	87.61309	59.75150
37.89783	87.64618	59.75152
37.93117	87.68085	59.75156
37.96450	87.71418	59.75160
37.99750	87.74594	59.75164
38.03100	87.77894	59.75157
38.06433	87.81234	59.75156
38.09767	87.84539	59.75163
38.13100	87.87794	59.75168
38.16433	87.91194	59.75166
38.19766	87.94543	59.75160
38.23100	87.97872	59.75156
38.26433	88.01224	59.75159
38.29783	88.04788	59.75158
38.33116	88.08232	59.75149
38.36450	88.11562	59.75166
38.39783	88.14828	59.75176
38.43117	88.18159	59.75184
38.46416	88.21564	59.75180
38.49750	88.24762	59.75175
38.53100	88.28074	59.75176
38.56433	88.31265	59.75180
38.59767	88.34566	59.75179
38.63100	88.37891	59.75182
38.66433	88.41196	59.75176
38.69766	88.44489	59.75175
38.73100	88.47788	59.75182
38.76433	88.51063	59.75187
38.79767	88.54453	59.75180
38.83100	88.57782	59.75168
38.86433	88.61112	59.75176
38.89767	88.64303	59.75190
38.93100	88.67742	59.75198
38.96450	88.70981	59.75193
38.99783	88.74330	59.75188
39.03116	88.77545	59.75195
39.06450	88.80874	59.75200
39.09783	88.84234	59.75214
39.13083	88.87340	59.75212
39.16416	88.90758	59.75211
39.19766	88.94245	59.75213
39.23100	88.97474	59.75210
39.26433	89.00731	59.75224
39.29767	89.04064	59.75226
39.33100	89.07402	59.75226
39.36433	89.10747	59.75230
39.39767	89.14063	59.75229
39.43100	89.17344	59.75228
39.46433	89.20725	59.75229
39.49766	89.24035	59.75222
39.53100	89.27184	59.75213
39.56433	89.30576	59.75220
39.59767	89.33819	59.75227
39.63100	89.37142	59.75224
39.66433	89.40441	59.75229
39.69766	89.43843	59.75230
39.73100	89.47160	59.75234
39.76433	89.50591	59.75227
39.79767	89.53931	59.75234
39.83116	89.57196	59.75242
39.86450	89.60530	59.75239
39.89783	89.64000	59.75248
39.93117	89.67192	59.75241
39.96450	89.70590	59.75240
39.99783	89.73965	59.75242
40.03116	89.77363	59.75243
40.06450	89.80757	59.75250
40.09867	89.84126	59.75242
40.13283	89.87639	59.75246
40.16617	89.90887	59.75254
40.19950	89.94218	59.75255
40.23250	89.97632	59.75257
40.26666	90.01024	59.75253
40.30084	90.04389	59.75250
40.33417	90.07664	59.75258
40.36750	90.10994	59.75266
40.40083	90.14312	59.75260
40.43584	90.17918	59.75261
40.47083	90.21457	59.75262
40.50433	90.24874	59.75268
40.53766	90.28114	59.75264
40.57100	90.31410	59.75265
40.60516	90.34912	59.75266
40.63933	90.38320	59.75271
40.67267	90.41621	59.75278
40.70600	90.44905	59.75272
40.73933	90.48180	59.75276
40.77267	90.51488	59.75282
40.80600	90.54742	59.75289
40.83933	90.58019	59.75286
40.87266	90.61297	59.75278
40.90600	90.64576	59.75278
40.94016	90.67947	59.75276
40.97434	90.71375	59.75278
41.00766	90.74688	59.75284
41.04100	90.78001	59.75284
41.07450	90.81449	59.75293
41.10867	90.84812	59.75307
41.14283	90.88232	59.75312
41.17617	90.91608	59.75303
41.20950	90.94980	59.75302
41.24283	90.98370	59.75305
41.27783	91.01918	59.75307
41.31283	91.05556	59.75305
41.34617	91.08780	59.75300
41.37916	91.12196	59.75310
41.41250	91.15520	59.75317
41.44667	91.18944	59.75318
41.48084	91.22394	59.75318
41.51433	91.25772	59.75315
41.54766	91.29059	59.75318
41.58100	91.32366	59.75322
41.61434	91.35675	59.75334
41.64766	91.39119	59.75339
41.68100	91.42499	59.75334
41.71433	91.45790	59.75340
41.74766	91.49178	59.75328
41.78100	91.52488	59.75320
41.81434	91.55834	59.75322
41.84766	91.59199	59.75322
41.88100	91.62478	59.75326
41.91434	91.65864	59.75335
41.94766	91.69181	59.75341
41.98100	91.72456	59.75338
42.01433	91.75881	59.75337
42.04766	91.79089	59.75335
42.08100	91.82381	59.75340
42.11434	91.85675	59.75343
42.14783	91.89032	59.75344
42.18117	91.92391	59.75344
42.21450	91.95719	59.75352
42.24783	91.98981	59.75356
42.28084	92.02313	59.75354
42.31416	92.05525	59.75352
42.34766	92.08812	59.75349
42.38100	92.12064	59.75355
42.41434	92.15547	59.75360
42.44766	92.18851	59.75360
42.48100	92.22169	59.75355
42.51433	92.25519	59.75354
42.54766	92.28830	59.75359
42.58100	92.32188	59.75361
42.61434	92.35434	59.75356
42.64766	92.38778	59.75350
42.68100	92.42152	59.75352
42.71433	92.45444	59.75368
42.74783	92.48766	59.75369
42.78116	92.52007	59.75376
42.81450	92.55391	59.75385
42.84783	92.58686	59.75381
42.88117	92.62089	59.75382
42.91450	92.65465	59.75390
42.94783	92.68774	59.75391
42.98084	92.72090	59.75396
43.01416	92.75352	59.75400
43.04766	92.78724	59.75400
43.08100	92.82043	59.75393
43.11434	92.85399	59.75398
43.14766	92.88765	59.75405
43.18100	92.92005	59.75401
43.21433	92.95342	59.75404
43.24766	92.98656	59.75416
43.28100	93.02046	59.75426
43.31434	93.05228	59.75428
43.34766	93.08709	59.75424
43.38100	93.11902	59.75416
43.41434	93.15358	59.75422
43.44766	93.18757	59.75432
43.48100	93.22090	59.75442
43.51433	93.25432	59.75446
43.54766	93.28444	59.75440
43.58100	93.31869	59.75432
43.61450	93.35131	59.75420
43.64783	93.38351	59.75410
43.68117	93.41816	59.75430
43.71450	93.45165	59.75443
43.74783	93.48578	59.75439
43.78116	93.51970	59.75443
43.81450	93.55372	59.75445
43.84783	93.58704	59.75442
43.88117	93.62012	59.75449
43.91450	93.65288	59.75447
43.94750	93.68660	59.75445
43.98084	93.71947	59.75447
44.01416	93.75206	59.75440
44.04766	93.78601	59.75440
44.08100	93.81945	59.75440
44.11434	93.85398	59.75444
44.14766	93.88789	59.75453
44.18100	93.92184	59.75455
44.21433	93.95624	59.75465
44.24766	93.99047	59.75470
44.28100	94.02304	59.75469
44.31516	94.05642	59.75470
44.34934	94.09028	59.75461
44.38266	94.12382	59.75461
44.41600	94.15675	59.75459
44.44934	94.19051	59.75459
44.48350	94.22492	59.75460
44.51783	94.25937	59.75474
44.55117	94.29212	59.75489
44.58450	94.32478	59.75486
44.61783	94.35932	59.75494
44.65283	94.39278	59.75502
44.68783	94.42788	59.75493
44.72083	94.46218	59.75495
44.75416	94.49549	59.75492
44.78750	94.52831	59.75489
44.82100	94.56225	59.75488
44.85434	94.59474	59.75486
44.88766	94.62812	59.75494
44.92100	94.66084	59.75489
44.95434	94.69532	59.75486
44.98766	94.72843	59.75495
45.02100	94.76259	59.75502
45.05434	94.79575	59.75512
45.08766	94.82884	59.75502
45.12100	94.86203	59.75500
45.15450	94.89499	59.75502
45.18783	94.92856	59.75503
45.22117	94.96181	59.75504
45.25450	94.99616	59.75508
45.28784	95.02968	59.75508
45.32084	95.06219	59.75514
45.35417	95.09418	59.75520
45.38766	95.12746	59.75518
45.42100	95.16095	59.75522
45.45434	95.19462	59.75526
45.48766	95.22704	59.75531
45.52100	95.26031	59.75530
45.55434	95.29416	59.75530
45.58766	95.32884	59.75528
45.62100	95.36191	59.75518
45.65434	95.39555	59.75520
45.68783	95.42784	59.75522
45.72117	95.46119	59.75530
45.75450	95.49366	59.75532
45.78784	95.52694	59.75532
45.82117	95.56149	59.75528
45.85417	95.59462	59.75532
45.88750	95.62919	59.75534
45.92100	95.66356	59.75532
45.95434	95.69672	59.75532
45.98766	95.73126	59.75536
46.02100	95.76578	59.75542
46.05434	95.79736	59.75545
46.08766	95.83178	59.75541
46.12100	95.86571	59.75535
46.15434	95.89962	59.75550
46.18766	95.93446	59.75551
46.22100	95.96695	59.75550
46.25434	96.00042	59.75549
46.28766	96.03400	59.75550
46.32100	96.06788	59.75558
46.35434	96.10092	59.75557
46.38766	96.13382	59.75560
46.42100	96.16624	59.75564
46.45434	96.20028	59.75570
46.48766	96.23299	59.75574
46.52100	96.26649	59.75570
46.55434	96.30061	59.75572
46.58766	96.33406	59.75574
46.62100	96.36825	59.75570
46.65434	96.40145	59.75562
46.68766	96.43503	59.75570
46.72100	96.46922	59.75579
46.75434	96.50268	59.75584
46.78766	96.53524	59.75585
46.82100	96.56743	59.75590
46.85450	96.60047	59.75589
46.88783	96.63397	59.75590
46.92117	96.66699	59.75581
46.95450	96.70124	59.75584
46.98750	96.73532	59.75584
47.02083	96.76780	59.75587
47.05434	96.80203	59.75584
47.08766	96.83593	59.75586
47.12100	96.86909	59.75591
47.15434	96.90136	59.75594
47.18766	96.93451	59.75599
47.22100	96.96769	59.75598
47.25434	97.00051	59.75598
47.28784	97.03270	59.75600
47.32117	97.06522	59.75609
47.35450	97.09825	59.75611
47.38783	97.13134	59.75612
47.42084	97.16550	59.75611
47.45434	97.20030	59.75614
47.48766	97.23451	59.75615
47.52183	97.26887	59.75620
47.55600	97.30299	59.75620
47.58933	97.33520	59.75623
47.62266	97.36809	59.75625
47.65600	97.40103	59.75635
47.69016	97.43391	59.75640
47.72434	97.46711	59.75636
47.75783	97.50074	59.75634
47.79117	97.53425	59.75628
47.82450	97.56781	59.75630
47.85867	97.60163	59.75630
47.89283	97.63532	59.75630
47.92584	97.66814	59.75640
47.95917	97.70097	59.75648
47.99250	97.73468	59.75646
48.02766	97.76957	59.75649
48.06266	97.80434	59.75652
48.09600	97.83918	59.75650
48.12934	97.87170	59.75649
48.16266	97.90555	59.75644
48.19684	97.94092	59.75662
48.23100	97.97503	59.75669
48.26433	98.00887	59.75668
48.29766	98.04162	59.75675
48.33100	98.07555	59.75686
48.36434	98.10718	59.75689
48.39766	98.14019	59.75688
48.43100	98.17369	59.75688
48.46450	98.20732	59.75684
48.49783	98.24186	59.75692
48.53200	98.27676	59.75698
48.56617	98.31036	59.75699
48.59950	98.34429	59.75699
48.63250	98.37755	59.75698
48.66583	98.40969	59.75700
48.69934	98.44400	59.75704
48.73266	98.47618	59.75708
48.76600	98.50978	59.75712
48.79933	98.54394	59.75704
48.83267	98.57670	59.75710
48.86600	98.61008	59.75713
48.89934	98.64191	59.75713
48.93266	98.67676	59.75720
48.96600	98.70975	59.75720
48.99933	98.74312	59.75726
49.03266	98.77618	59.75736
49.06617	98.80962	59.75730
49.09950	98.84212	59.75728
49.13283	98.87641	59.75729
49.16617	98.91098	59.75734
49.19950	98.94434	59.75725
49.23283	98.97780	59.75730
49.26617	99.01142	59.75725
49.29916	99.04526	59.75732
49.33250	99.07801	59.75742
49.36583	99.11126	59.75744
49.39934	99.14321	59.75744
49.43266	99.17632	59.75752
49.46600	99.20937	59.75754
49.49933	99.24465	59.75756
49.53266	99.27858	59.75758
49.56600	99.31266	59.75753
49.59934	99.34613	59.75754
49.63266	99.38047	59.75751
49.66600	99.41500	59.75752
49.69934	99.44874	59.75752
49.73266	99.48261	59.75752
49.76617	99.51547	59.75758
49.79950	99.54782	59.75762
49.83283	99.58209	59.75762
49.86617	99.61574	59.75764
49.89950	99.64898	59.75758
49.93283	99.68207	59.75761
49.96617	99.71504	59.75761
49.99917	99.74663	59.75764
50.03250	99.78026	59.75762
50.06583	99.81342	59.75758
50.09934	99.84757	59.75761
50.13266	99.88069	59.75764
50.16600	99.91312	59.75761
50.19934	99.94598	59.75757
50.23266	99.97866	59.75756
50.26600	100.0113	59.75769
50.29933	100.0459	59.75772
50.33267	100.0803	59.75772
50.36600	100.1119	59.75772
50.39934	100.1440	59.75776
50.43266	100.1780	59.75770
50.46600	100.2119	59.75774
50.49933	100.2454	59.75776
50.53266	100.2787	59.75774
50.56600	100.3112	59.75787
50.59934	100.3451	59.75789
50.63283	100.3784	59.75789
50.66617	100.4108	59.75789
50.69950	100.4449	59.75782
50.73283	100.4771	59.75787
50.76617	100.5102	59.75788
50.79950	100.5434	59.75795
50.83283	100.5768	59.75793
50.86583	100.6101	59.75795
50.89934	100.6440	59.75792
50.93266	100.6772	59.75793
50.96600	100.7111	59.75794
50.99933	100.7447	59.75800
51.03266	100.7780	59.75808
51.06600	100.8107	59.75816
51.09934	100.8423	59.75822
51.13266	100.8760	59.75810
51.16600	100.9089	59.75816
51.19934	100.9421	59.75814
51.23266	100.9754	59.75816
51.26600	101.0087	59.75818
51.29933	101.0426	59.75821
51.33266	101.0753	59.75818
51.36600	101.1076	59.75816
51.39934	101.1412	59.75818
51.43266	101.1743	59.75816
51.46600	101.2063	59.75830
51.49934	101.2383	59.75826
51.53266	101.2724	59.75824
51.56617	101.3076	59.75828
51.59950	101.3409	59.75832
51.63283	101.3736	59.75840
51.66617	101.4080	59.75835
51.69950	101.4420	59.75834
51.73367	101.4761	59.75839
51.76783	101.5105	59.75836
51.80117	101.5443	59.75835
51.83450	101.5785	59.75851
51.86783	101.6126	59.75850
51.90283	101.6469	59.75842
51.93783	101.6820	59.75850
51.97117	101.7146	59.75856
52.00450	101.7472	59.75851
52.03784	101.7801	59.75859
52.07200	101.8142	59.75865
52.10616	101.8477	59.75871
52.13916	101.8820	59.75868
52.17250	101.9162	59.75869
52.20584	101.9508	59.75872
52.24000	101.9855	59.75874
52.27416	102.0206	59.75874
52.30750	102.0544	59.75884
52.34083	102.0882	59.75886
52.37417	102.1216	59.75888
52.40766	102.1554	59.75894
52.44100	102.1890	59.75891
52.47434	102.2219	59.75892
52.50766	102.2550	59.75892
52.54100	102.2871	59.75894
52.57434	102.3208	59.75899
52.60766	102.3532	59.75904
52.64100	102.3865	59.75904
52.67432	102.4189	59.75898
52.70766	102.4527	59.75896
52.74100	102.4858	59.75912
52.77434	102.5179	59.75919
52.80766	102.5521	59.75930
52.84100	102.5854	59.75945
52.87434	102.6184	59.75943
52.90766	102.6517	59.75933
52.94100	102.6859	59.75934
52.97434	102.7190	59.75930
53.00766	102.7533	59.75926
53.04100	102.7861	59.75928
53.07434	102.8198	59.75930
53.10766	102.8517	59.75929
53.14100	102.8862	59.75926
53.17432	102.9176	59.75932
53.20766	102.9503	59.75919
53.24100	102.9837	59.75924
53.27434	103.0156	59.75924
53.30750	103.0499	59.75928
53.34082	103.0834	59.75944
53.37418	103.1163	59.75950
53.40750	103.1491	59.75951
53.44082	103.1817	59.75963
53.47418	103.2148	59.75961
53.50750	103.2472	59.75964
53.54082	103.2812	59.75970
53.57450	103.3148	59.75967
53.60784	103.3478	59.75970
53.64117	103.3817	59.75976
53.67450	103.4149	59.75972
53.70783	103.4496	59.75972
53.74116	103.4823	59.75970
53.77450	103.5161	59.75972
53.80784	103.5502	59.75989
53.84117	103.5843	59.75987
53.87450	103.6166	59.75984
53.90783	103.6508	59.75992
53.94100	103.6830	59.75999
53.97434	103.7172	59.75986
54.00766	103.7498	59.75982
54.04100	103.7832	59.75984
54.07434	103.8158	59.75994
54.10766	103.8490	59.75990
54.14100	103.8832	59.75996
54.17432	103.9168	59.76002
54.20766	103.9498	59.76000
54.24100	103.9848	59.76000
54.27434	104.0187	59.76008
54.30766	104.0530	59.76015
54.34100	104.0864	59.76020
54.37434	104.1198	59.76021
54.40766	104.1534	59.76020
54.44100	104.1881	59.76021
54.47418	104.2225	59.76025
54.50750	104.2565	59.76026
54.54117	104.2898	59.76025
54.57450	104.3244	59.76032
54.60784	104.3574	59.76039
54.64117	104.3907	59.76030
54.67450	104.4243	59.76030
54.70766	104.4562	59.76033
54.74100	104.4887	59.76035
54.77434	104.5216	59.76036
54.80766	104.5555	59.76039
54.84100	104.5877	59.76040
54.87434	104.6206	59.76040
54.90766	104.6542	59.76044
54.94100	104.6877	59.76046
54.97434	104.7222	59.76042
55.00766	104.7558	59.76042
55.04082	104.7894	59.76040
55.07416	104.8221	59.76040
55.10784	104.8553	59.76045
55.14117	104.8892	59.76057
55.17450	104.9224	59.76062
55.20783	104.9557	59.76057
55.24116	104.9896	59.76063
55.27534	105.0233	59.76069
55.30950	105.0572	59.76070
55.34266	105.0898	59.76068
55.37600	105.1241	59.76066
55.40933	105.1583	59.76066
55.44433	105.1928	59.76064
55.47934	105.2280	59.76066
55.51266	105.2608	59.76063
55.54600	105.2941	59.76060
55.57934	105.3260	59.76062
55.61350	105.3580	59.76060
55.64766	105.3919	59.76074
55.68100	105.4234	59.76078
55.71433	105.4558	59.76082
55.74766	105.4885	59.76093
55.78184	105.5218	59.76100
55.81600	105.5557	59.76104
55.84934	105.5879	59.76109
55.88250	105.6218	59.76114
55.91582	105.6549	59.76118
55.95033	105.6896	59.76120
55.98450	105.7242	59.76120
56.01783	105.7565	59.76121
56.05117	105.7902	59.76122
56.08450	105.8240	59.76122
56.11950	105.8585	59.76122
56.15434	105.8946	59.76129
56.18768	105.9280	59.76126
56.22100	105.9606	59.76124
56.25434	105.9945	59.76124
56.28850	106.0290	59.76118
56.32266	106.0628	59.76132
56.35600	106.0969	59.76134
56.38933	106.1320	59.76124
56.42266	106.1639	59.76124
56.45684	106.1979	59.76130
56.49100	106.2308	59.76130
56.52434	106.2650	59.76130
56.55766	106.2980	59.76135
56.59100	106.3318	59.76135
56.62434	106.3664	59.76138
56.65766	106.4015	59.76140
56.69100	106.4338	59.76147
56.72434	106.4677	59.76142
56.75766	106.5019	59.76142
56.79100	106.5353	59.76146
56.82434	106.5689	59.76152
56.85750	106.6016	59.76148
56.89082	106.6352	59.76148
56.92418	106.6686	59.76155
56.95750	106.7002	59.76160
56.99116	106.7345	59.76162
57.02450	106.7677	59.76158
57.05784	106.8000	59.76156
57.09117	106.8328	59.76158
57.12450	106.8657	59.76160
57.15783	106.8990	59.76157
57.19117	106.9325	59.76165
57.22450	106.9657	59.76166
57.25783	106.9992	59.76168
57.29117	107.0317	59.76179
57.32450	107.0651	59.76187
57.35784	107.0988	59.76186
57.39117	107.1329	59.76188
57.42450	107.1669	59.76190
57.45783	107.2015	59.76187
57.49116	107.2352	59.76184
57.52450	107.2682	59.76184
57.55784	107.3010	59.76188
57.59117	107.3338	59.76194
57.62450	107.3668	59.76191
57.65783	107.3991	59.76191
57.69117	107.4320	59.76196
57.72434	107.4660	59.76200
57.75766	107.5002	59.76204
57.79100	107.5326	59.76204
57.82434	107.5656	59.76205
57.85766	107.5985	59.76210
57.89100	107.6320	59.76207
57.92432	107.6652	59.76211
57.95766	107.6990	59.76213
57.99100	107.7326	59.76215
58.02434	107.7662	59.76220
58.05766	107.7976	59.76211
58.09100	107.8325	59.76220
58.12434	107.8654	59.76238
58.15766	107.8997	59.76256
58.19100	107.9322	59.76234
58.22418	107.9656	59.76222
58.25750	107.9981	59.76226
58.29082	108.0318	59.76230
58.32450	108.0659	59.76232
58.35784	108.0998	59.76234
58.39117	108.1324	59.76231
58.42450	108.1659	59.76231
58.45783	108.1992	59.76238
58.49116	108.2334	59.76247
58.52450	108.2670	59.76252
58.55784	108.3003	59.76254
58.59117	108.3332	59.76259
58.62450	108.3674	59.76265
58.65783	108.4009	59.76265
58.69117	108.4337	59.76270
58.72450	108.4691	59.76272
58.75783	108.5020	59.76266
58.79117	108.5350	59.76256
58.82450	108.5681	59.76262
58.85784	108.6017	59.76266
58.89117	108.6350	59.76266
58.92450	108.6702	59.76268
58.95783	108.7022	59.76275
58.99116	108.7345	59.76270
59.02450	108.7666	59.76264
59.05784	108.7989	59.76270
59.09117	108.8317	59.76272
59.12450	108.8657	59.76275
59.15783	108.8980	59.76279
59.19117	108.9319	59.76283
59.22450	108.9650	59.76280
59.25783	108.9983	59.76276
59.29117	109.0311	59.76271
59.32533	109.0645	59.76283
59.35950	109.0986	59.76282
59.39283	109.1315	59.76280
59.42617	109.1638	59.76282
59.45950	109.1962	59.76285
59.49450	109.2288	59.76296
59.52918	109.2622	59.76304
59.56250	109.2942	59.76310
59.59582	109.3273	59.76312
59.62916	109.3605	59.76316
59.66334	109.3951	59.76319
59.69750	109.4289	59.76319
59.73100	109.4627	59.76320
59.76433	109.4973	59.76320
59.79766	109.5326	59.76330
59.83184	109.5684	59.76331
59.86600	109.6019	59.76330
59.89934	109.6356	59.76332
59.93266	109.6671	59.76335
59.96600	109.7028	59.76336
60.00018	109.7363	59.76342
60.03433	109.7704	59.76336
60.06766	109.8054	59.76326
60.10100	109.8395	59.76340
60.13433	109.8729	59.76342
60.16934	109.9086	59.76338
60.20434	109.9441	59.76337
60.23766	109.9777	59.76342
60.27100	110.0129	59.76346
60.30434	110.0467	59.76350
60.33850	110.0810	59.76362
60.37266	110.1156	59.76365
60.40600	110.1507	59.76365
60.43934	110.1829	59.76360
60.47266	110.2171	59.76352
60.50600	110.2507	59.76354
60.53933	110.2845	59.76355
60.57266	110.3179	59.76359
60.60600	110.3503	59.76360
60.63933	110.3838	59.76368
60.67350	110.4183	59.76371
60.70766	110.4531	59.76373
60.74100	110.4867	59.76380
60.77434	110.5200	59.76382
60.80766	110.5533	59.76386
60.84184	110.5864	59.76390
60.87600	110.6194	59.76387
60.90933	110.6519	59.76387
60.94266	110.6856	59.76389
60.97584	110.7185	59.76395
61.00918	110.7517	59.76394
61.04250	110.7838	59.76400
61.07582	110.8177	59.76400
61.10918	110.8500	59.76392
61.14250	110.8838	59.76389
61.17584	110.9166	59.76397
61.20918	110.9474	59.76403
61.24250	110.9806	59.76403
61.27582	111.0134	59.76409
61.30918	111.0454	59.76407
61.34250	111.0787	59.76408
61.37582	111.1105	59.76414
61.40918	111.1428	59.76418
61.44266	111.1758	59.76416
61.47600	111.2102	59.76420
61.50933	111.2420	59.76431
61.54268	111.2760	59.76424
61.57600	111.3084	59.76431
61.60933	111.3425	59.76429
61.64266	111.3760	59.76432
61.67600	111.4089	59.76433
61.70933	111.4423	59.76430
61.74268	111.4751	59.76426
61.77600	111.5093	59.76430
61.80933	111.5434	59.76434
61.84266	111.5774	59.76436
61.87600	111.6105	59.76435
61.90933	111.6425	59.76435
61.94266	111.6764	59.76448
61.97600	111.7107	59.76452
62.00933	111.7429	59.76458
62.04268	111.7762	59.76460
62.07600	111.8099	59.76466
62.10933	111.8438	59.76472
62.14266	111.8773	59.76474
62.17600	111.9106	59.76472
62.20933	111.9449	59.76472
62.24268	111.9800	59.76484
62.27600	112.0137	59.76495
62.30933	112.0470	59.76492
62.34266	112.0804	59.76480
62.37600	112.1129	59.76487
62.40933	112.1460	59.76484
62.44266	112.1790	59.76492
62.47600	112.2133	59.76500
62.50933	112.2462	59.76507
62.54268	112.2784	59.76513
62.57600	112.3130	59.76516
62.60933	112.3468	59.76511
62.64266	112.3801	59.76513
62.67600	112.4120	59.76514
62.70933	112.4459	59.76514
62.74268	112.4801	59.76508
62.77600	112.5135	59.76513
62.80933	112.5460	59.76526
62.84266	112.5796	59.76537
62.87600	112.6150	59.76536
62.90950	112.6471	59.76538
62.94283	112.6832	59.76510
62.97617	112.7161	59.76540
63.00950	112.7506	59.76545
63.04283	112.7846	59.76559
63.07617	112.8177	59.76539
63.10950	112.8506	59.76543
63.14250	112.8849	59.76538
63.17584	112.9191	59.76545
63.20918	112.9515	59.76549
63.24268	112.9848	59.76551
63.27600	113.0183	59.76557
63.30933	113.0514	59.76556
63.34266	113.0842	59.76556
63.37600	113.1174	59.76552
63.40933	113.1525	59.76559
63.44266	113.1856	59.76572
63.47600	113.2193	59.76575
63.50933	113.2520	59.76582
63.54268	113.2863	59.76580
63.57600	113.3193	59.76581
63.60933	113.3523	59.76580
63.64266	113.3856	59.76586
63.67600	113.4185	59.76584
63.70933	113.4517	59.76591
63.74283	113.4845	59.76599
63.77617	113.5170	59.76608
63.80950	113.5508	59.76612
63.84283	113.5848	59.76612
63.87617	113.6182	59.76620
63.90950	113.6533	59.76617
63.94283	113.6852	59.76607
63.97584	113.7181	59.76612
64.00916	113.7509	59.76620
64.04250	113.7839	59.76612
64.07600	113.8171	59.76612
64.10934	113.8504	59.76617
64.14268	113.8828	59.76621
64.17600	113.9172	59.76614
64.21100	113.9524	59.76626
64.24600	113.9869	59.76629
64.27934	114.0202	59.76632
64.31268	114.0527	59.76627
64.34600	114.0859	59.76622
64.38016	114.1196	59.76632
64.41433	114.1544	59.76635
64.44766	114.1886	59.76640
64.48100	114.2210	59.76642
64.51434	114.2552	59.76650
64.54766	114.2900	59.76650
64.58100	114.3247	59.76645
64.61433	114.3595	59.76646
64.64766	114.3937	59.76651
64.68100	114.4287	59.76657
64.71516	114.4626	59.76664
64.74934	114.4970	59.76660
64.78266	114.5309	59.76661
64.81600	114.5641	59.76660
64.84934	114.5954	59.76658
64.88350	114.6294	59.76652
64.91766	114.6639	59.76660
64.95100	114.6960	59.76664
64.98434	114.7289	59.76666
65.01768	114.7610	59.76675
65.05266	114.7954	59.76678
65.08768	114.8287	59.76678
65.12100	114.8625	59.76680
65.15434	114.8949	59.76691
65.18768	114.9269	59.76695
65.22183	114.9612	59.76707
65.25600	114.9943	59.76720
65.28933	115.0271	59.76718
65.32266	115.0600	59.76719
65.35600	115.0932	59.76718
65.39016	115.1260	59.76714
65.42450	115.1590	59.76714
65.45783	115.1928	59.76711
65.49116	115.2256	59.76718
65.52450	115.2587	59.76722
65.55866	115.2936	59.76730
65.59282	115.3299	59.76732
65.62616	115.3628	59.76732
65.65950	115.3956	59.76726
65.69282	115.4296	59.76724
65.72750	115.4660	59.76731
65.76250	115.5001	59.76738
65.79582	115.5336	59.76736
65.82918	115.5674	59.76743
65.86250	115.6002	59.76746
65.89668	115.6335	59.76742
65.93100	115.6682	59.76742
65.96432	115.7015	59.76742
65.99766	115.7343	59.76747
66.03100	115.7679	59.76740
66.06518	115.8022	59.76746
66.09934	115.8368	59.76747
66.13266	115.8707	59.76741
66.16600	115.9047	59.76744
66.19934	115.9376	59.76752
66.23350	115.9723	59.76750
66.26768	116.0049	59.76744
66.30100	116.0382	59.76749
66.33434	116.0709	59.76763
66.36768	116.1049	59.76770
66.40266	116.1404	59.76759
66.43768	116.1761	59.76766
66.47100	116.2092	59.76770
66.50434	116.2404	59.76768
66.53766	116.2729	59.76771
66.57200	116.3071	59.76778
66.60616	116.3402	59.76774
66.63950	116.3730	59.76780
66.67284	116.4063	59.76781
66.70618	116.4404	59.76774
66.74032	116.4755	59.76777
66.77450	116.5093	59.76788
66.80782	116.5430	59.76783
66.84116	116.5774	59.76782
66.87450	116.6118	59.76778
66.90866	116.6461	59.76789
66.94250	116.6792	59.76801
66.97582	116.7131	59.76807
67.00916	116.7481	59.76810
67.04250	116.7823	59.76820
67.07766	116.8176	59.76824
67.11266	116.8530	59.76824
67.14600	116.8856	59.76816
67.17934	116.9181	59.76816
67.21268	116.9511	59.76812
67.24682	116.9831	59.76812
67.28100	117.0174	59.76814
67.31432	117.0498	59.76824
67.34766	117.0845	59.76834
67.38100	117.1181	59.76840
67.41516	117.1534	59.76843
67.44934	117.1882	59.76840
67.48266	117.2227	59.76842
67.51600	117.2540	59.76840
67.54932	117.2863	59.76828
67.58350	117.3207	59.76826
67.61782	117.3546	59.76826
67.65118	117.3870	59.76840
67.68450	117.4204	59.76848
67.71782	117.4519	59.76856
67.75282	117.4856	59.76856
67.78784	117.5202	59.76856
67.82116	117.5551	59.76861
67.85450	117.5894	59.76865
67.88750	117.6239	59.76866
67.92168	117.6591	59.76871
67.95584	117.6922	59.76882
67.98916	117.7259	59.76885
68.02266	117.7603	59.76886
68.05600	117.7945	59.76887
68.09016	117.8299	59.76885
68.12434	117.8640	59.76879
68.15766	117.8984	59.76899
68.19100	117.9327	59.76900
68.22434	117.9678	59.76907
68.25850	118.0016	59.76907
68.29266	118.0366	59.76900
68.32600	118.0700	59.76897
68.35934	118.1038	59.76902
68.39268	118.1360	59.76902
68.42766	118.1708	59.76909
68.46268	118.2039	59.76910
68.49600	118.2367	59.76914
68.52934	118.2706	59.76918
68.56268	118.3026	59.76918
68.59682	118.3367	59.76912
68.63116	118.3708	59.76915
68.66450	118.4040	59.76916
68.69782	118.4363	59.76918
68.73116	118.4690	59.76918
68.76532	118.5025	59.76922
68.79950	118.5356	59.76916
68.83282	118.5696	59.76909
68.86616	118.6021	59.76914
68.89918	118.6334	59.76909
68.93334	118.6677	59.76912
68.96750	118.7002	59.76922
69.00100	118.7340	59.76936
69.03432	118.7660	59.76958
69.06766	118.7999	59.76954
69.10266	118.8352	59.76956
69.13766	118.8708	59.76960
69.17100	118.9046	59.76967
69.20434	118.9381	59.76972
69.23766	118.9720	59.76976
69.27184	119.0064	59.76975
69.30600	119.0414	59.76976
69.33932	119.0745	59.76977
69.37266	119.1072	59.76978
69.40600	119.1410	59.76974
69.44018	119.1760	59.76970
69.47434	119.2100	59.76973
69.50766	119.2443	59.76982
69.54100	119.2786	59.76985
69.57434	119.3126	59.76985
69.60850	119.3470	59.76990
69.64268	119.3805	59.76995
69.67600	119.4135	59.76996
69.70934	119.4460	59.76995
69.74268	119.4800	59.77002
69.77766	119.5148	59.77003
69.81268	119.5493	59.77007
69.84600	119.5834	59.77010
69.87934	119.6171	59.77007
69.91266	119.6513	59.77011
69.94682	119.6850	59.77012
69.98100	119.7194	59.77012
70.01434	119.7532	59.77022
70.04766	119.7863	59.77027
70.08100	119.8197	59.77027
70.11516	119.8532	59.77030
70.14932	119.8866	59.77036
70.18266	119.9201	59.77044
70.21600	119.9520	59.77049
70.24934	119.9848	59.77050
70.28350	120.0191	59.77060
70.31766	120.0534	59.77060
70.35100	120.0864	59.77050
70.38432	120.1196	59.77041
70.41766	120.1512	59.77034
70.45266	120.1855	59.77036
70.48766	120.2206	59.77066
70.52100	120.2496	59.77051
70.55434	120.2816	59.77010
70.58768	120.3144	59.77027
70.62182	120.3469	59.77055
70.65600	120.3804	59.77066
70.68932	120.4139	59.77070
70.72266	120.4478	59.77078
70.75600	120.4812	59.77079
70.79016	120.5149	59.77076
70.82434	120.5497	59.77084
70.85766	120.5838	59.77089
70.89100	120.6175	59.77082
70.92432	120.6512	59.77082
70.95850	120.6864	59.77089
70.99268	120.7212	59.77100
71.02600	120.7541	59.77109
71.05932	120.7869	59.77094
71.09266	120.8201	59.77087
71.12768	120.8555	59.77090
71.16266	120.8899	59.77100
71.19600	120.9231	59.77085
71.22934	120.9559	59.77094
71.26266	120.9875	59.77110
71.29684	121.0222	59.77112
71.33100	121.0564	59.77112
71.36432	121.0893	59.77089
71.39766	121.1225	59.77066
71.43100	121.1529	59.77062
71.46432	121.1846	59.77056
71.49766	121.2146	59.77058
71.53100	121.2435	59.77039
71.56432	121.2733	59.77031
71.59766	121.3019	59.77027
71.63184	121.3314	59.77009
71.66616	121.3626	59.77033
71.69950	121.3923	59.77061
71.73284	121.4209	59.77062
71.76616	121.4511	59.77038
71.80032	121.4801	59.77027
71.83450	121.5090	59.77026
71.86782	121.5384	59.77021
71.90118	121.5687	59.77021
71.93450	121.5991	59.77026
71.96918	121.6297	59.77028
72.00416	121.6616	59.77026
72.03750	121.6927	59.77030
72.07082	121.7226	59.77037
72.10416	121.7546	59.77029
72.13850	121.7869	59.77032
72.17266	121.8201	59.77038
72.20600	121.8525	59.77035
72.23932	121.8844	59.77032
72.27266	121.9174	59.77028
72.30682	121.9505	59.77031
72.34100	121.9855	59.77028
72.37434	122.0190	59.77027
72.40766	122.0524	59.77038
72.44100	122.0863	59.77036
72.47516	122.1219	59.77037
72.50932	122.1568	59.77045
72.54266	122.1919	59.77052
72.57600	122.2259	59.77053
72.60934	122.2611	59.77049
72.64434	122.2991	59.77045
72.67934	122.3359	59.77053
72.71268	122.3718	59.77058
72.74600	122.4072	59.77062
72.77934	122.4413	59.77062
72.81350	122.4776	59.77060
72.84766	122.5136	59.77066
72.88100	122.5496	59.77063
72.91432	122.5852	59.77062
72.94766	122.6205	59.77074
72.98100	122.6551	59.77087
73.01434	122.6900	59.77087
73.04766	122.7245	59.77085
73.08100	122.7597	59.77078
73.11432	122.7950	59.77076
73.14850	122.8316	59.77082
73.18266	122.8682	59.77088
73.21600	122.9044	59.77090
73.24934	122.9400	59.77092
73.28266	122.9754	59.77093
73.31684	123.0118	59.77098
73.35100	123.0487	59.77100
73.38432	123.0842	59.77094
73.41766	123.1186	59.77093
73.45100	123.1533	59.77106
73.48600	123.1900	59.77112
73.52100	123.2266	59.77111
73.55434	123.2620	59.77111
73.58768	123.2970	59.77107
73.62100	123.3326	59.77115
73.65532	123.3676	59.77121
73.68950	123.4023	59.77114
73.72282	123.4374	59.77124
73.75616	123.4714	59.77136
73.78950	123.5050	59.77134
73.82368	123.5418	59.77130
73.85784	123.5768	59.77130
73.89116	123.6098	59.77132
73.92450	123.6447	59.77123
73.95782	123.6800	59.77129
73.99200	123.7137	59.77138
74.02618	123.7484	59.77135
74.05918	123.7824	59.77135
74.09250	123.8172	59.77143
74.12582	123.8502	59.77150
74.16084	123.8862	59.77145
74.19600	123.9216	59.77150
74.22934	123.9556	59.77153
74.26266	123.9907	59.77154
74.29600	124.0248	59.77162
74.33018	124.0599	59.77170
74.36432	124.0945	59.77163
74.39766	124.1293	59.77160
74.43100	124.1641	59.77163
74.46432	124.1986	59.77182
74.49766	124.2307	59.77190
74.53100	124.2644	59.77175
74.56432	124.2978	59.77182
74.59766	124.3304	59.77188
74.63100	124.3660	59.77186
74.66516	124.4000	59.77184
74.69934	124.4347	59.77200
74.73266	124.4689	59.77200
74.76600	124.5029	59.77201
74.79932	124.5367	59.77209
74.83350	124.5713	59.77210
74.86768	124.6056	59.77200
74.90118	124.6392	59.77196
74.93450	124.6735	59.77202
74.96782	124.7073	59.77207
75.00282	124.7412	59.77205
75.03784	124.7758	59.77208
75.07116	124.8086	59.77211
75.10450	124.8408	59.77210
75.13750	124.8745	59.77215
75.17168	124.9090	59.77219
75.20584	124.9440	59.77224
75.23932	124.9766	59.77232
75.27266	125.0105	59.77239
75.30600	125.0426	59.77239
75.34016	125.0776	59.77240
75.37434	125.1114	59.77240
75.40766	125.1442	59.77245
75.44100	125.1775	59.77248
75.47434	125.2118	59.77251
75.50850	125.2459	59.77257
75.54266	125.2798	59.77263
75.57600	125.3130	59.77261
75.60934	125.3466	59.77262
75.64268	125.3808	59.77266
75.67766	125.4164	59.77278
75.71268	125.4507	59.77280
75.74600	125.4841	59.77282
75.77934	125.5164	59.77280
75.81268	125.5508	59.77278
75.84682	125.5846	59.77280
75.88100	125.6192	59.77290
75.91450	125.6520	59.77293
75.94782	125.6858	59.77298
75.98116	125.7200	59.77298
76.01532	125.7544	59.77296
76.04950	125.7884	59.77291
76.08282	125.8228	59.77291
76.11616	125.8576	59.77292
76.14950	125.8904	59.77298
76.18366	125.9241	59.77293
76.21782	125.9582	59.77301
76.25116	125.9912	59.77310
76.28450	126.0251	59.77320
76.31750	126.0573	59.77324
76.35082	126.0902	59.77316
76.38416	126.1236	59.77320
76.41766	126.1567	59.77338
76.45100	126.1900	59.77338
76.48434	126.2238	59.77339
76.51768	126.2582	59.77344
76.55100	126.2906	59.77348
76.58434	126.3252	59.77343
76.61768	126.3580	59.77338
76.65100	126.3936	59.77348
76.68432	126.4260	59.77346
76.71766	126.4584	59.77348
76.75100	126.4917	59.77352
76.78432	126.5251	59.77351
76.81766	126.5590	59.77356
76.85100	126.5918	59.77360
76.88432	126.6259	59.77360
76.91766	126.6591	59.77363
76.95100	126.6924	59.77363
76.98434	126.7260	59.77360
77.01782	126.7597	59.77365
77.05118	126.7924	59.77370
77.08450	126.8254	59.77366
77.11782	126.8579	59.77376
77.15118	126.8915	59.77379
77.18450	126.9259	59.77380
77.21750	126.9587	59.77385
77.25082	126.9926	59.77390
77.28432	127.0257	59.77386
77.31766	127.0584	59.77395
77.35100	127.0913	59.77402
77.38432	127.1230	59.77404
77.41766	127.1570	59.77408
77.45100	127.1902	59.77418
77.48434	127.2223	59.77421
77.51768	127.2560	59.77421
77.55100	127.2895	59.77420
77.58434	127.3228	59.77421
77.61782	127.3570	59.77428
77.65118	127.3905	59.77429
77.68450	127.4221	59.77428
77.71782	127.4542	59.77428
77.75116	127.4883	59.77441
77.78450	127.5228	59.77447
77.81750	127.5543	59.77443
77.85082	127.5875	59.77432
77.88416	127.6212	59.77428
77.91766	127.6546	59.77434
77.95100	127.6878	59.77426
77.98434	127.7218	59.77426
78.01768	127.7552	59.77440
78.05100	127.7899	59.77460
78.08434	127.8214	59.77470
78.11768	127.8535	59.77473
78.15100	127.8872	59.77470
78.18432	127.9201	59.77468
78.21766	127.9544	59.77479
78.25100	127.9898	59.77485
78.28432	128.0250	59.77490
78.31766	128.0598	59.77485
78.35116	128.0935	59.77490
78.38450	128.1272	59.77494
78.41782	128.1587	59.77493
78.45116	128.1918	59.77495
78.48418	128.2262	59.77500
78.51750	128.2582	59.77502
78.55100	128.2906	59.77500
78.58434	128.3244	59.77503
78.61768	128.3583	59.77519
78.65100	128.3915	59.77522
78.68432	128.4257	59.77524
78.71766	128.4594	59.77522
78.75100	128.4920	59.77515
78.78432	128.5252	59.77519
78.81766	128.5593	59.77524
78.85116	128.5921	59.77524
78.88450	128.6255	59.77524
78.91782	128.6577	59.77526
78.95116	128.6913	59.77530
78.98418	128.7248	59.77544
79.01768	128.7577	59.77554
79.05266	128.7920	59.77555
79.08768	128.8269	59.77554
79.12100	128.8593	59.77554
79.15434	128.8928	59.77562
79.18768	128.9264	59.77559
79.22182	128.9607	59.77560
79.25600	128.9951	59.77564
79.28950	129.0293	59.77572
79.32282	129.0630	59.77575
79.35616	129.0965	59.77570
79.38950	129.1312	59.77564
79.42284	129.1657	59.77566
79.45584	129.1992	59.77569
79.48916	129.2328	59.77574
79.52266	129.2666	59.77585
79.55682	129.2994	59.77592
79.59100	129.3337	59.77588
79.62434	129.3665	59.77590
79.65766	129.3997	59.77594
79.69100	129.4334	59.77594
79.72516	129.4674	59.77593
79.75932	129.5010	59.77598
79.79266	129.5351	59.77600
79.82600	129.5673	59.77610
79.85934	129.5982	59.77611
79.89450	129.6322	59.77606
79.92950	129.6669	59.77613
79.96282	129.7008	59.77618
79.99616	129.7347	59.77630
80.02950	129.7672	59.77636
80.06332	129.8014	59.77640
80.09750	129.8354	59.77644
80.13100	129.8694	59.77646
80.16432	129.9029	59.77648
80.19766	129.9351	59.77636
80.23184	129.9701	59.77638
80.26600	130.0043	59.77644
80.29932	130.0358	59.77639
80.33266	130.0703	59.77645
80.36600	130.1032	59.77649
80.40018	130.1371	59.77650
80.43432	130.1708	59.77662
80.46766	130.2038	59.77664
80.50100	130.2365	59.77663
80.53432	130.2700	59.77666
80.56934	130.3050	59.77676
80.60450	130.3417	59.77684
80.63782	130.3763	59.77683
80.67116	130.4103	59.77681
80.70450	130.4438	59.77686
80.73750	130.4773	59.77692
80.77084	130.5104	59.77695
80.80434	130.5431	59.77700
80.83768	130.5776	59.77696
80.87100	130.6111	59.77698
80.90434	130.6447	59.77701
80.93768	130.6785	59.77708
80.97100	130.7128	59.77718
81.00434	130.7450	59.77724
81.03766	130.7792	59.77709
81.07100	130.8140	59.77711
81.10434	130.8486	59.77702
81.13782	130.8832	59.77694
81.17116	130.9189	59.77695
81.20450	130.9515	59.77695
81.23782	130.9848	59.77703
81.27116	131.0171	59.77706
81.30450	131.0504	59.77703
81.33782	131.0832	59.77710
81.37116	131.1167	59.77710
81.40450	131.1484	59.77704
81.43784	131.1807	59.77702
81.47082	131.2132	59.77710
81.50416	131.2465	59.77720
81.53750	131.2788	59.77716
81.57082	131.3126	59.77711
81.60434	131.3471	59.77727
81.63766	131.3800	59.77738
81.67100	131.4115	59.77730
81.70434	131.4441	59.77730
81.73766	131.4767	59.77738
81.77100	131.5085	59.77743
81.80434	131.5417	59.77744
81.83768	131.5741	59.77744
81.87100	131.6069	59.77751
81.90434	131.6397	59.77750
81.93768	131.6723	59.77750
81.97100	131.7062	59.77754
82.00434	131.7401	59.77766
82.03766	131.7744	59.77773
82.07100	131.8064	59.77770
82.10434	131.8396	59.77762
82.13766	131.8727	59.77760
82.17100	131.9054	59.77758
82.20450	131.9389	59.77754
82.23782	131.9724	59.77764
82.27118	132.0062	59.77769
82.30450	132.0387	59.77778
82.33782	132.0726	59.77780
82.37118	132.1070	59.77783
82.40450	132.1415	59.77795
82.43782	132.1754	59.77793
82.47082	132.2088	59.77789
82.50416	132.2415	59.77800
82.53750	132.2744	59.77801
82.57082	132.3081	59.77807
82.60434	132.3414	59.77804
82.63766	132.3755	59.77814
82.67100	132.4079	59.77822
82.70434	132.4431	59.77830
82.73766	132.4778	59.77828
82.77100	132.5122	59.77824
82.80434	132.5467	59.77820
82.83768	132.5800	59.77824
82.87100	132.6134	59.77830
82.90434	132.6463	59.77832
82.93768	132.6804	59.77834
82.97100	132.7136	59.77842
83.00434	132.7462	59.77846
83.03766	132.7784	59.77840
83.07100	132.8124	59.77842
83.10434	132.8460	59.77844
83.13766	132.8788	59.77850
83.17100	132.9132	59.77860
83.20434	132.9458	59.77839
83.23766	132.9808	59.77866
83.27184	133.0154	59.77904
83.30616	133.0477	59.77886
83.33950	133.0816	59.77877
83.37282	133.1142	59.77879
83.40616	133.1484	59.77874
83.44032	133.1825	59.77872
83.47450	133.2161	59.77879
83.50750	133.2495	59.77881
83.54082	133.2837	59.77888
83.57434	133.3159	59.77898
83.60850	133.3500	59.77908
83.64266	133.3840	59.77906
83.67600	133.4175	59.77910
83.70934	133.4495	59.77914
83.74266	133.4823	59.77918
83.77766	133.5176	59.77926
83.81268	133.5512	59.77924
83.84600	133.5834	59.77921
83.87934	133.6169	59.77922
83.91266	133.6490	59.77924
83.94684	133.6836	59.77930
83.98101	133.7181	59.77937
84.01434	133.7517	59.77945
84.04766	133.7853	59.77943
84.08100	133.8190	59.77944
84.11516	133.8527	59.77943
84.14932	133.8872	59.77942
84.18282	133.9199	59.77941
84.21616	133.9535	59.77949
84.24950	133.9876	59.77955
84.28368	134.0214	59.77958
84.31782	134.0566	59.77970
84.35116	134.0896	59.77969
84.38449	134.1227	59.77970
84.41782	134.1565	59.77976
84.45282	134.1927	59.77974
84.48782	134.2274	59.77979
84.52118	134.2618	59.77970
84.55418	134.2941	59.77979
84.58750	134.3272	59.77985
84.62168	134.3629	59.77989
84.65600	134.3988	59.77999
84.68934	134.4305	59.78007
84.72266	134.4634	59.77990
84.75600	134.4975	59.78005
84.79016	134.5317	59.78021
84.82434	134.5668	59.78030
84.85766	134.5991	59.78043
84.89100	134.6301	59.78036
84.92432	134.6615	59.78028
84.95851	134.6950	59.78031
84.99266	134.7290	59.78037
85.02600	134.7622	59.78030
85.05950	134.7954	59.78032
85.09282	134.8289	59.78031
85.12782	134.8631	59.78037
85.16282	134.8993	59.78050
85.19618	134.9315	59.78052
85.22950	134.9644	59.78056
85.26282	134.9989	59.78054
85.29668	135.0341	59.78057
85.33084	135.0673	59.78069
85.36418	135.1011	59.78066
85.39750	135.1348	59.78070
85.43084	135.1681	59.78075
85.46516	135.2005	59.78075
85.49934	135.2388	59.78054
85.53266	135.2708	59.78095
85.56601	135.3044	59.78097
85.59934	135.3383	59.78120
85.63350	135.3720	59.78090
85.66766	135.4065	59.78092
85.70100	135.4402	59.78100
85.73434	135.4743	59.78101
85.76766	135.5080	59.78101
85.80266	135.5436	59.78106
85.83750	135.5798	59.78114
85.87084	135.6125	59.78115
85.90418	135.6455	59.78121
85.93750	135.6801	59.78120
85.97168	135.7148	59.78124
86.00616	135.7487	59.78128
86.03949	135.7817	59.78132
86.07282	135.8162	59.78140
86.10616	135.8483	59.78144
86.13950	135.8828	59.78140
86.17284	135.9156	59.78144
86.20618	135.9492	59.78144
86.23950	135.9838	59.78157
86.27282	136.0159	59.78165
86.30700	136.0486	59.78162
86.34116	136.0828	59.78166
86.37450	136.1153	59.78169
86.40782	136.1490	59.78169
86.44118	136.1813	59.78174
86.47532	136.2150	59.78184
86.50934	136.2494	59.78182
86.54266	136.2838	59.78186
86.57600	136.3154	59.78184
86.60934	136.3502	59.78175
86.64434	136.3859	59.78187
86.67934	136.4212	59.78201
86.71268	136.4543	59.78206
86.74601	136.4873	59.78212
86.77934	136.5203	59.78222
86.81366	136.5551	59.78215
86.84782	136.5888	59.78223
86.88116	136.6217	59.78226
86.91449	136.6549	59.78220
86.94782	136.6883	59.78220
86.98200	136.7227	59.78231
87.01618	136.7570	59.78238
87.04950	136.7908	59.78238
87.08282	136.8238	59.78234
87.11616	136.8564	59.78235
87.15032	136.8894	59.78244
87.18450	136.9225	59.78250
87.21782	136.9569	59.78246
87.25116	136.9912	59.78244
87.28449	137.0249	59.78246
87.31949	137.0584	59.78255
87.35450	137.0920	59.78260
87.38782	137.1256	59.78262
87.42082	137.1593	59.78266
87.45418	137.1918	59.78270
87.48750	137.2258	59.78279
87.52084	137.2581	59.78287
87.55418	137.2915	59.78300
87.58750	137.3250	59.78295
87.62118	137.3585	59.78296
87.65450	137.3924	59.78301
87.68782	137.4260	59.78308
87.72118	137.4601	59.78315
87.75450	137.4935	59.78318
87.78782	137.5277	59.78316
87.82118	137.5628	59.78316
87.85434	137.5948	59.78324
87.88766	137.6286	59.78326
87.92100	137.6626	59.78330
87.95434	137.6953	59.78331
87.98766	137.7290	59.78338
88.02101	137.7618	59.78343
88.05434	137.7960	59.78352
88.08768	137.8294	59.78356
88.12101	137.8614	59.78359
88.15434	137.8954	59.78362
88.18768	137.9290	59.78359
88.22101	137.9626	59.78357
88.25434	137.9960	59.78362
88.28766	138.0288	59.78379
88.32100	138.0619	59.78384
88.35434	138.0949	59.78381
88.38782	138.1282	59.78382
88.42118	138.1609	59.78380
88.45450	138.1948	59.78376
88.48782	138.2284	59.78386
88.52118	138.2627	59.78395
88.55450	138.2952	59.78398
88.58782	138.3278	59.78396
88.62084	138.3616	59.78399
88.65418	138.3946	59.78407
88.68750	138.4284	59.78411
88.72082	138.4619	59.78408
88.75416	138.4962	59.78408
88.78750	138.5301	59.78410
88.82082	138.5637	59.78419
88.85416	138.5963	59.78422
88.88750	138.6302	59.78426
88.92118	138.6639	59.78428
88.95450	138.6965	59.78428
88.98782	138.7307	59.78428
89.02118	138.7638	59.78432
89.05450	138.7962	59.78440
89.08782	138.8285	59.78441
89.12101	138.8609	59.78437
89.15434	138.8945	59.78442
89.18768	138.9283	59.78441
89.22101	138.9603	59.78448
89.25434	138.9936	59.78448
89.28766	139.0262	59.78450
89.32100	139.0596	59.78460
89.35434	139.0937	59.78472
89.38766	139.1270	59.78476
89.42100	139.1603	59.78476
89.45434	139.1942	59.78486
89.48766	139.2269	59.78501
89.52084	139.2622	59.78500
89.55418	139.2934	59.78496
89.58782	139.3279	59.78492
89.62118	139.3606	59.78500
89.65450	139.3941	59.78508
89.68782	139.4276	59.78516
89.72118	139.4605	59.78524
89.75450	139.4940	59.78521
89.78782	139.5267	59.78526
89.82118	139.5598	59.78538
89.85450	139.5931	59.78540
89.88782	139.6256	59.78535
89.92118	139.6581	59.78537
89.95434	139.6902	59.78533
89.98766	139.7223	59.78535
90.02184	139.7565	59.78535
90.05616	139.7910	59.78545
90.08950	139.8248	59.78546
90.12282	139.8590	59.78548
90.15600	139.8911	59.78552
90.19018	139.9238	59.78554
90.22434	139.9588	59.78559
90.25766	139.9930	59.78567
90.29101	140.0262	59.78574
90.32434	140.0612	59.78575
90.35850	140.0955	59.78580
90.39266	140.1305	59.78580
90.42600	140.1642	59.78582
90.45934	140.1979	59.78585
90.49266	140.2313	59.78590
90.52766	140.2680	59.78593
90.56268	140.3034	59.78598
90.59601	140.3369	59.78598
90.62934	140.3702	59.78596
90.66266	140.4043	59.78604
90.69684	140.4388	59.78606
90.73101	140.4729	59.78614
90.76418	140.5065	59.78620
90.79750	140.5396	59.78622
90.83084	140.5724	59.78632
90.86532	140.6058	59.78624
90.89950	140.6413	59.78626
90.93282	140.6754	59.78629
90.96616	140.7090	59.78630
90.99950	140.7426	59.78641
91.03368	140.7758	59.78648
91.06782	140.8091	59.78652
91.10116	140.8430	59.78649
91.13449	140.8764	59.78656
91.16782	140.9096	59.78668
91.20266	140.9444	59.78660
91.23766	140.9795	59.78664
91.27101	141.0125	59.78672
91.30434	141.0464	59.78676
91.33768	141.0794	59.78676
91.37184	141.1132	59.78678
91.40600	141.1465	59.78680
91.43934	141.1790	59.78684
91.47266	141.2114	59.78682
91.50600	141.2454	59.78684
91.54016	141.2791	59.78699
91.57434	141.3125	59.78701
91.60766	141.3454	59.78707
91.64100	141.3787	59.78711
91.67432	141.4113	59.78713
91.70851	141.4453	59.78712
91.74266	141.4799	59.78711
91.77600	141.5139	59.78720
91.80934	141.5467	59.78726
91.84266	141.5802	59.78729
91.87600	141.6140	59.78732
91.90918	141.6472	59.78734
91.94250	141.6806	59.78732
91.97616	141.7137	59.78736
92.00949	141.7463	59.78747
92.04282	141.7800	59.78752
92.07616	141.8134	59.78750
92.10949	141.8475	59.78754
92.14282	141.8803	59.78765
92.17618	141.9121	59.78774
92.20950	141.9440	59.78769
92.24282	141.9783	59.78765
92.27600	142.0119	59.78770
92.30934	142.0454	59.78776
92.34266	142.0791	59.78774
92.37600	142.1119	59.78771
92.40934	142.1449	59.78774
92.44266	142.1780	59.78778
92.47600	142.2122	59.78785
92.50934	142.2450	59.78789
92.54266	142.2784	59.78795
92.57600	142.3117	59.78805
92.60934	142.3454	59.78804
92.64266	142.3779	59.78799
92.67600	142.4119	59.78798
92.70934	142.4461	59.78803
92.74266	142.4794	59.78811
92.77600	142.5129	59.78812
92.80934	142.5478	59.78820
92.84266	142.5812	59.78832
92.87600	142.6151	59.78834
92.90934	142.6470	59.78845
92.94266	142.6805	59.78844
92.97582	142.7154	59.78848
93.00916	142.7478	59.78850
93.04250	142.7816	59.78844
93.07584	142.8154	59.78860
93.10949	142.8482	59.78868
93.14282	142.8819	59.78870
93.17618	142.9152	59.78868
93.20950	142.9488	59.78870
93.24282	142.9831	59.78882
93.27618	143.0155	59.78872
93.30950	143.0495	59.78868
93.34282	143.0833	59.78882
93.37616	143.1156	59.78894
93.40949	143.1491	59.78890
93.44282	143.1823	59.78891
93.47616	143.2149	59.78898
93.50916	143.2491	59.78900
93.54250	143.2840	59.78915
93.57584	143.3172	59.78920
93.60934	143.3514	59.78910
93.64266	143.3852	59.78906
93.67600	143.4186	59.78916
93.70934	143.4512	59.78918
93.74266	143.4845	59.78928
93.77600	143.5178	59.78935
93.80934	143.5514	59.78943
93.84266	143.5824	59.78943
93.87600	143.6156	59.78930
93.90934	143.6493	59.78934
93.94266	143.6825	59.78946
93.97600	143.7151	59.78959
94.00934	143.7483	59.78960
94.04266	143.7818	59.78960
94.07600	143.8149	59.78953
94.10934	143.8475	59.78955
94.14266	143.8809	59.78964
94.17600	143.9130	59.78969
94.20934	143.9468	59.78969
94.24266	143.9791	59.78972
94.27600	144.0126	59.78977
94.30934	144.0462	59.78975
94.34266	144.0797	59.78970
94.37600	144.1131	59.78970
94.40934	144.1474	59.78969
94.44266	144.1810	59.78965
94.47600	144.2135	59.78974
94.50934	144.2463	59.78979
94.54266	144.2793	59.78972
94.57782	144.3147	59.78975
94.61282	144.3507	59.78984
94.64618	144.3846	59.78985
94.67950	144.4178	59.78992
94.71282	144.4505	59.79000
94.74700	144.4847	59.79006
94.78116	144.5190	59.79004
94.81450	144.5525	59.79006
94.84782	144.5856	59.79014
94.88116	144.6192	59.79012
94.91534	144.6527	59.79014
94.94950	144.6870	59.79018
94.98250	144.7190	59.79024
95.01582	144.7530	59.79019
95.04932	144.7866	59.79023
95.08351	144.8196	59.79030
95.11766	144.8546	59.79026
95.15100	144.8881	59.79038
95.18434	144.9208	59.79051
95.21766	144.9538	59.79058
95.25268	144.9891	59.79064
95.28766	145.0236	59.79060
95.32100	145.0572	59.79062
95.35434	145.0900	59.79060
95.38766	145.1246	59.79068
95.42184	145.1583	59.79079
95.45600	145.1930	59.79082
95.48934	145.2268	59.79084
95.52266	145.2598	59.79082
95.55616	145.2942	59.79086
95.58950	145.3273	59.79082
95.62282	145.3602	59.79082
95.65616	145.3953	59.79087
95.68950	145.4288	59.79094
95.72282	145.4619	59.79094
95.75699	145.4981	59.79106
95.79082	145.5330	59.79121
95.82416	145.5653	59.79124
95.85750	145.5991	59.79119
95.89082	145.6340	59.79112
95.92516	145.6680	59.79112
95.95934	145.7023	59.79112
95.99266	145.7354	59.79100
96.02600	145.7688	59.79106
96.05934	145.8025	59.79120
96.09432	145.8372	59.79130
96.12934	145.8726	59.79130
96.16266	145.9061	59.79132
96.19600	145.9385	59.79135
96.22934	145.9722	59.79140
96.26350	146.0056	59.79148
96.29766	146.0396	59.79150
96.33100	146.0730	59.79150
96.36434	146.1061	59.79150
96.39766	146.1410	59.79154
96.43100	146.1739	59.79170
96.46434	146.2077	59.79168
96.49766	146.2419	59.79163
96.53100	146.2739	59.79160
96.56434	146.3072	59.79154
96.59851	146.3415	59.79151
96.63266	146.3756	59.79164
96.66601	146.4080	59.79170
96.69934	146.4405	59.79165
96.73266	146.4734	59.79172
96.76684	146.5068	59.79169
96.80100	146.5396	59.79175
96.83434	146.5739	59.79184
96.86766	146.6062	59.79185
96.90100	146.6390	59.79186
96.93600	146.6748	59.79180
96.97101	146.7109	59.79189
97.00434	146.7439	59.79204
97.03766	146.7776	59.79194
97.07100	146.8107	59.79191
97.10516	146.8449	59.79187
97.13934	146.8789	59.79188
97.17266	146.9127	59.79200
97.20600	146.9447	59.79207
97.23934	146.9794	59.79203
97.27350	147.0143	59.79212
97.30766	147.0468	59.79211
97.34101	147.0802	59.79202
97.37434	147.1144	59.79204
97.40766	147.1477	59.79207
97.44184	147.1825	59.79211
97.47600	147.2167	59.79217
97.50934	147.2505	59.79221
97.54282	147.2836	59.79210
97.57616	147.3175	59.79206
97.61118	147.3532	59.79213
97.64618	147.3871	59.79224
97.67950	147.4221	59.79224
97.71282	147.4542	59.79226
97.74618	147.4878	59.79222
97.78032	147.5219	59.79213
97.81416	147.5566	59.79216
97.84750	147.5909	59.79229
97.88084	147.6243	59.79238
97.91434	147.6580	59.79241
97.94766	147.6893	59.79241
97.98101	147.7210	59.79238
98.01434	147.7541	59.79239
98.04766	147.7876	59.79248
98.08100	147.8203	59.79258
98.11434	147.8544	59.79253
98.14766	147.8875	59.79258
98.18100	147.9200	59.79262
98.21434	147.9526	59.79257
98.24766	147.9867	59.79255
98.28100	148.0204	59.79258
98.31434	148.0538	59.79262
98.34766	148.0860	59.79256
98.38100	148.1196	59.79257
98.41434	148.1521	59.79268
98.44782	148.1845	59.79262
98.48116	148.2174	59.79262
98.51450	148.2511	59.79268
98.54784	148.2843	59.79275
98.58118	148.3161	59.79271
98.61418	148.3486	59.79268
98.64750	148.3808	59.79272
98.68084	148.4149	59.79282
98.71434	148.4486	59.79287
98.74766	148.4815	59.79282
98.78100	148.5153	59.79274
98.81434	148.5486	59.79270
98.84766	148.5825	59.79275
98.88100	148.6155	59.79277
98.91434	148.6492	59.79278
98.94766	148.6829	59.79272
98.98101	148.7164	59.79274
99.01434	148.7487	59.79274
99.04766	148.7834	59.79268
99.08100	148.8164	59.79270
99.11434	148.8489	59.79262
99.14766	148.8821	59.79254
99.18100	148.9166	59.79263
99.21434	148.9505	59.79270
99.24766	148.9834	59.79280
99.28100	149.0184	59.79278
99.31434	149.0514	59.79283
99.34766	149.0841	59.79281
99.38100	149.1184	59.79280
99.41434	149.1516	59.79278
99.44766	149.1852	59.79273
99.48101	149.2184	59.79271
99.51434	149.2522	59.79268
99.54766	149.2850	59.79270
99.58118	149.3174	59.79266
99.61450	149.3504	59.79263
99.64782	149.3836	59.79265
99.68116	149.4189	59.79265
99.71450	149.4522	59.79265
99.74782	149.4862	59.79266
99.78116	149.5203	59.79253
99.81450	149.5547	59.79252
99.84782	149.5877	59.79248
99.88084	149.6210	59.79253
99.91418	149.6540	59.79250
99.94750	149.6872	59.79246
99.98101	149.7212	59.79242
100.0143	149.7545	59.79244
100.0477	149.7886	59.79236
100.0810	149.8217	59.79229
100.1143	149.8551	59.79213
100.1477	149.8879	59.79209
100.1810	149.9217	59.79207
100.2143	149.9555	59.79203
100.2477	149.9898	59.79188
100.2810	150.0234	59.79190
100.3143	150.0566	59.79199
100.3477	150.0889	59.79182
100.3810	150.1223	59.79184
100.4143	150.1561	59.79184
100.4477	150.1895	59.79187
100.4810	150.2224	59.79190
100.5143	150.2550	59.79182
100.5478	150.2874	59.79180
100.5812	150.3196	59.79178
100.6145	150.3537	59.79170
100.6487	150.3860	59.79160
100.6828	150.4199	59.79150
100.7162	150.4542	59.79140
100.7495	150.4876	59.79136
100.7828	150.5210	59.79143
100.8170	150.5559	59.79136
100.8512	150.5900	59.79118
100.8845	150.6237	59.79110
100.9178	150.6577	59.79102
100.9510	150.6914	59.79099
100.9860	150.7264	59.79087
101.0210	150.7620	59.79076
101.0543	150.7969	59.79075
101.0877	150.8302	59.79068
101.1210	150.8635	59.79051
101.1552	150.8974	59.79047
101.1893	150.9315	59.79036
101.2227	150.9644	59.79023
101.2560	150.9968	59.79005
101.2893	151.0293	59.78984
101.3235	151.0636	59.78970
101.3577	151.0974	59.78955
101.3910	151.1307	59.78940
101.4243	151.1643	59.78930
101.4577	151.1989	59.78916
101.4918	151.2334	59.78916
101.5260	151.2676	59.78907
101.5593	151.3017	59.78894
101.5927	151.3356	59.78882
101.6260	151.3690	59.78876
101.6610	151.4044	59.78862
101.6960	151.4386	59.78834
101.7293	151.4732	59.78811
101.7625	151.5070	59.78793
101.7958	151.5389	59.78777
101.8300	151.5721	59.78746
101.8645	151.6069	59.78728
101.8978	151.6409	59.78717
101.9312	151.6735	59.78694
101.9645	151.7054	59.78670
101.9978	151.7371	59.78641
102.0312	151.7704	59.78626
102.0645	151.8020	59.78597
102.0978	151.8349	59.78575
102.1312	151.8666	59.78532
102.1653	151.9018	59.78510
102.1995	151.9366	59.78502
102.2328	151.9701	59.78496
102.2662	152.0038	59.78472
102.2993	152.0372	59.78451
102.3335	152.0696	59.78404
102.3677	152.1028	59.78360
102.4010	152.1370	59.78312
102.4343	152.1700	59.78287
102.4677	152.2040	59.78270
102.5027	152.2408	59.78237
102.5377	152.2759	59.78201
102.5710	152.3099	59.78164
102.6043	152.3425	59.78121
102.6377	152.3754	59.78070
102.6718	152.4087	59.78024
102.7060	152.4437	59.77984
102.7393	152.4788	59.77944
102.7727	152.5114	59.77900
102.8060	152.5436	59.77857
102.8402	152.5768	59.77802
102.8743	152.6121	59.77744
102.9077	152.6445	59.77705
102.9408	152.6799	59.77662
102.9742	152.7116	59.77618
103.0075	152.7456	59.77552
103.0412	152.7794	59.77500
103.0745	152.8138	59.77454
103.1078	152.8474	59.77396
103.1412	152.8798	59.77331
103.1745	152.9126	59.77269
103.2078	152.9458	59.77220
103.2412	152.9792	59.77154
103.2745	153.0118	59.77080
103.3078	153.0472	59.77007
103.3410	153.0793	59.76940
103.3743	153.1118	59.76856
103.4077	153.1449	59.76780
103.4410	153.1785	59.76711
103.4743	153.2126	59.76644
103.5077	153.2443	59.76574
103.5410	153.2766	59.76488
103.5743	153.3107	59.76409
103.6077	153.3436	59.76328
103.6410	153.3759	59.76230
103.6743	153.4092	59.76144
103.7077	153.4439	59.76055
103.7410	153.4775	59.75979
103.7743	153.5086	59.75886
103.8077	153.5416	59.75791
103.8410	153.5750	59.75702
103.8743	153.6083	59.75598
103.9077	153.6421	59.75489
103.9410	153.6758	59.75382
103.9743	153.7102	59.75292
104.0077	153.7436	59.75213
104.0410	153.7742	59.75080
104.0743	153.8098	59.74959
104.1077	153.8434	59.74860
104.1410	153.8767	59.74753
104.1743	153.9094	59.74639
104.2077	153.9422	59.74526
104.2410	153.9759	59.74410
104.2742	154.0093	59.74292
104.3075	154.0428	59.74178
104.3408	154.0768	59.74053
104.3742	154.1116	59.73924
104.4078	154.1454	59.73811
104.4412	154.1802	59.73686
104.4745	154.2127	59.73562
104.5078	154.2474	59.73430
104.5412	154.2809	59.73309
104.5745	154.3144	59.73174
104.6077	154.3482	59.73039
104.6410	154.3821	59.72908
104.6743	154.4150	59.72778
104.7077	154.4487	59.72644
104.7410	154.4822	59.72514
104.7743	154.5162	59.72382
104.8077	154.5490	59.72246
104.8410	154.5824	59.72106
104.8743	154.6168	59.71975
104.9077	154.6504	59.71843
104.9410	154.6828	59.71704
104.9743	154.7165	59.71571
105.0077	154.7494	59.71432
105.0408	154.7828	59.71290
105.0745	154.8152	59.71148
105.1078	154.8502	59.71009
105.1412	154.8832	59.70874
105.1745	154.9175	59.70737
105.2078	154.9496	59.70598
105.2412	154.9822	59.70459
105.2743	155.0161	59.70318
105.3077	155.0492	59.70181
105.3410	155.0825	59.70046
105.3743	155.1159	59.69911
105.4077	155.1489	59.69772
105.4410	155.1824	59.69611
105.4743	155.2153	59.69459
105.5077	155.2479	59.69316
105.5410	155.2797	59.69184
105.5743	155.3133	59.69048
105.6077	155.3481	59.68908
105.6410	155.3816	59.68759
105.6743	155.4157	59.68596
105.7085	155.4486	59.68436
105.7427	155.4836	59.68271
105.7760	155.5174	59.68132
105.8093	155.5503	59.67996
105.8427	155.5836	59.67854
105.8777	155.6191	59.67695
105.9127	155.6544	59.67528
105.9460	155.6872	59.67380
105.9793	155.7195	59.67240
106.0127	155.7521	59.67098
106.0468	155.7867	59.66961
106.0810	155.8200	59.66820
106.1143	155.8508	59.66678
106.1477	155.8842	59.66538
106.1810	155.9179	59.66396
106.2143	155.9509	59.66254
106.2475	155.9845	59.66109
106.2808	156.0184	59.65972
106.3142	156.0513	59.65830
106.3475	156.0844	59.65691
106.3808	156.1176	59.65545
106.4145	156.1511	59.65402
106.4478	156.1846	59.65263
106.4812	156.2181	59.65118
106.5145	156.2511	59.64974
106.5478	156.2836	59.64830
106.5812	156.3175	59.64682
106.6145	156.3498	59.64530
106.6478	156.3829	59.64379
106.6812	156.4157	59.64238
106.7145	156.4504	59.64100
106.7478	156.4824	59.63964
106.7812	156.5162	59.63818
106.8145	156.5485	59.63680
106.8478	156.5809	59.63550
106.8812	156.6144	59.63404
106.9145	156.6471	59.63262
106.9478	156.6794	59.63130
106.9812	156.7120	59.62995
107.0145	156.7458	59.62862
107.0478	156.7804	59.62730
107.0812	156.8135	59.62593
107.1145	156.8480	59.62457
107.1478	156.8816	59.62329
107.1812	156.9150	59.62194
107.2145	156.9504	59.62050
107.2478	156.9836	59.61919
107.2812	157.0164	59.61788
107.3145	157.0513	59.61658
107.3478	157.0847	59.61538
107.3812	157.1179	59.61407
107.4145	157.1510	59.61280
107.4478	157.1841	59.61148
107.4812	157.2169	59.61025
107.5145	157.2512	59.60898
107.5478	157.2838	59.60774
107.5812	157.3172	59.60650
107.6145	157.3500	59.60520
107.6478	157.3837	59.60391
107.6812	157.4183	59.60271
107.7145	157.4523	59.60156
107.7477	157.4855	59.60039
107.7810	157.5198	59.59931
107.8143	157.5534	59.59810
107.8477	157.5854	59.59698
107.8810	157.6188	59.59578
107.9143	157.6517	59.59459
107.9477	157.6858	59.59343
107.9810	157.7202	59.59230
108.0143	157.7533	59.59118
108.0477	157.7873	59.59008
108.0810	157.8216	59.58898
108.1143	157.8547	59.58786
108.1477	157.8885	59.58676
108.1810	157.9218	59.58562
108.2143	157.9548	59.58449
108.2477	157.9878	59.58334
108.2810	158.0201	59.58227
108.3143	158.0534	59.58122
108.3477	158.0857	59.58015
108.3810	158.1192	59.57902
108.4143	158.1514	59.57795
108.4477	158.1853	59.57691
108.4810	158.2185	59.57593
108.5143	158.2516	59.57490
108.5477	158.2844	59.57388
108.5810	158.3183	59.57290
108.6143	158.3512	59.57195
108.6477	158.3845	59.57096
108.6810	158.4184	59.56988
108.7143	158.4514	59.56897
108.7477	158.4833	59.56797
108.7810	158.5150	59.56692
108.8143	158.5497	59.56597
108.8477	158.5829	59.56510
108.8810	158.6158	59.56416
108.9143	158.6507	59.56330
108.9477	158.6830	59.56234
108.9810	158.7169	59.56130
109.0143	158.7507	59.56037
109.0477	158.7845	59.55948
109.0818	158.8200	59.55860
109.1160	158.8561	59.55769
109.1493	158.8919	59.55681
109.1827	158.9261	59.55591
109.2160	158.9591	59.55503
109.2502	158.9922	59.55402
109.2843	159.0239	59.55305
109.3177	159.0601	59.55196
109.3510	159.0931	59.55139
109.3843	159.1279	59.55066
109.4193	159.1595	59.54961
109.4543	159.1944	59.54860
109.4876	159.2275	59.54778
109.5210	159.2608	59.54692
109.5543	159.2938	59.54615
109.5885	159.3264	59.54536
109.6227	159.3612	59.54454
109.6560	159.3946	59.54377
109.6893	159.4271	59.54300
109.7227	159.4593	59.54224
109.7560	159.4929	59.54138
109.7893	159.5268	59.54065
109.8227	159.5592	59.53987
109.8558	159.5930	59.53902
109.8892	159.6267	59.53813
109.9233	159.6608	59.53734
109.9575	159.6947	59.53658
109.9908	159.7281	59.53578
110.0242	159.7609	59.53499
110.0575	159.7938	59.53422
110.0908	159.8269	59.53343
110.1242	159.8594	59.53261
110.1578	159.8931	59.53184
110.1912	159.9277	59.53112
110.2245	159.9623	59.53047
110.2578	159.9944	59.52978
110.2912	160.0274	59.52908
110.3245	160.0613	59.52834
110.3578	160.0948	59.52760
110.3912	160.1277	59.52693
110.4245	160.1620	59.52634
110.4578	160.1956	59.52572
110.4912	160.2299	59.52505
110.5245	160.2630	59.52444
110.5578	160.2971	59.52380
110.5912	160.3306	59.52316
110.6245	160.3638	59.52248
110.6578	160.3990	59.52182
110.6912	160.4318	59.52121
110.7245	160.4664	59.52062
110.7578	160.4993	59.51996
110.7912	160.5336	59.51941
110.8245	160.5663	59.51882
110.8578	160.5998	59.51826
110.8912	160.6331	59.51777
110.9242	160.6661	59.51720
110.9575	160.6999	59.51656
110.9908	160.7335	59.51598
111.0242	160.7657	59.51540
111.0575	160.7971	59.51489
111.0908	160.8294	59.51434
111.1242	160.8639	59.51371
111.1575	160.8968	59.51328
111.1908	160.9290	59.51266
111.2242	160.9625	59.51205
111.2575	160.9942	59.51153
111.2908	161.0274	59.51102
111.3242	161.0612	59.51050
111.3575	161.0946	59.51000
111.3908	161.1265	59.50948
111.4242	161.1594	59.50894
111.4577	161.1931	59.50844
111.4910	161.2244	59.50788
111.5243	161.2578	59.50734
111.5577	161.2903	59.50682
111.5910	161.3232	59.50628
111.6243	161.3574	59.50582
111.6577	161.3904	59.50540
111.6910	161.4231	59.50489
111.7243	161.4579	59.50434
111.7577	161.4913	59.50399
111.7910	161.5232	59.50354
111.8243	161.5573	59.50301
111.8577	161.5892	59.50254
111.8910	161.6226	59.50205
111.9243	161.6568	59.50158
111.9578	161.6910	59.50114
111.9912	161.7241	59.50074
112.0245	161.7551	59.50028
112.0578	161.7904	59.49976
112.0912	161.8233	59.49948
112.1245	161.8572	59.49902
112.1578	161.8904	59.49859
112.1912	161.9252	59.49809
112.2245	161.9588	59.49762
112.2578	161.9916	59.49717
112.2912	162.0245	59.49678
112.3245	162.0582	59.49635
112.3578	162.0924	59.49596
112.3912	162.1261	59.49551
112.4245	162.1582	59.49512
112.4578	162.1917	59.49468
112.4908	162.2231	59.49425
112.5242	162.2594	59.49356
112.5575	162.2912	59.49343
112.5908	162.3250	59.49307
112.6243	162.3600	59.49287
112.6577	162.3905	59.49218
112.6910	162.4248	59.49179
112.7243	162.4591	59.49138
112.7577	162.4919	59.49102
112.7910	162.5256	59.49066
112.8243	162.5598	59.49028
112.8577	162.5943	59.48998
112.8910	162.6278	59.48954
112.9243	162.6608	59.48918
112.9585	162.6955	59.48890
112.9927	162.7302	59.48854
113.0260	162.7640	59.48820
113.0593	162.7978	59.48791
113.0927	162.8306	59.48760
113.1277	162.8649	59.48710
113.1627	162.9006	59.48671
113.1960	162.9347	59.48644
113.2293	162.9682	59.48610
113.2627	163.0015	59.48584
113.2968	163.0359	59.48546
113.3310	163.0699	59.48518
113.3643	163.1026	59.48481
113.3977	163.1341	59.48430
113.4312	163.1695	59.48422
113.4653	163.2050	59.48406
113.4995	163.2346	59.48370
113.5328	163.2700	59.48316
113.5662	163.3035	59.48291
113.5995	163.3389	59.48262
113.6325	163.3735	59.48232
113.6658	163.4076	59.48204
113.6992	163.4398	59.48168
113.7327	163.4741	59.48132
113.7660	163.5071	59.48105
113.7993	163.5406	59.48061
113.8327	163.5747	59.48031
113.8660	163.6082	59.48002
113.8993	163.6414	59.47982
113.9327	163.6738	59.47952
113.9660	163.7070	59.47921
113.9993	163.7396	59.47900
114.0327	163.7724	59.47870
114.0660	163.8030	59.47848
114.0993	163.8357	59.47822
114.1327	163.8689	59.47798
114.1660	163.9042	59.47782
114.1993	163.9368	59.47754
114.2327	163.9708	59.47720
114.2660	164.0046	59.47686
114.2993	164.0374	59.47656
114.3327	164.0698	59.47632
114.3660	164.1034	59.47609
114.3993	164.1365	59.47580
114.4327	164.1696	59.47558
114.4660	164.2027	59.47535
114.4993	164.2356	59.47510
114.5327	164.2703	59.47485
114.5662	164.3034	59.47462
114.5995	164.3371	59.47437
114.6328	164.3703	59.47420
114.6662	164.4045	59.47396
114.6995	164.4382	59.47368
114.7328	164.4711	59.47343
114.7662	164.5052	59.47319
114.7995	164.5376	59.47295
114.8328	164.5708	59.47274
114.8658	164.6045	59.47253
114.8992	164.6373	59.47226
114.9325	164.6712	59.47207
114.9660	164.7036	59.47184
114.9993	164.7374	59.47164
115.0327	164.7706	59.47141
115.0660	164.8044	59.47114
115.0993	164.8373	59.47096
115.1327	164.8683	59.47074
115.1660	164.9012	59.47047
115.1993	164.9342	59.47022
115.2327	164.9677	59.47008
115.2660	165.0008	59.46989
115.2993	165.0334	59.46972
115.3327	165.0650	59.46944
115.3660	165.0997	59.46922
115.3993	165.1322	59.46910
115.4327	165.1650	59.46894
115.4660	165.1976	59.46865
115.4993	165.2316	59.46843
115.5327	165.2649	59.46824
115.5660	165.2976	59.46804
115.5993	165.3321	59.46775
115.6327	165.3660	59.46744
115.6660	165.3995	59.46728
115.6993	165.4331	59.46701
115.7327	165.4650	59.46664
115.7660	165.4999	59.46642
115.7993	165.5346	59.46641
115.8327	165.5685	59.46640
115.8660	165.6017	59.46614
115.8993	165.6351	59.46586
115.9327	165.6684	59.46571
115.9660	165.7016	59.46548
115.9993	165.7353	59.46534
116.0327	165.7678	59.46512
116.0660	165.8010	59.46485
116.0993	165.8340	59.46468
116.1327	165.8682	59.46455
116.1660	165.9024	59.46445
116.1993	165.9363	59.46429
116.2327	165.9698	59.46412
116.2660	166.0041	59.46386
116.2993	166.0370	59.46370
116.3335	166.0710	59.46358
116.3678	166.1061	59.46343
116.4012	166.1394	59.46321
116.4345	166.1725	59.46309
116.4678	166.2070	59.46306
116.5028	166.2417	59.46293
116.5378	166.2766	59.46265
116.5708	166.3094	59.46234
116.6042	166.3432	59.46206
116.6375	166.3782	59.46202
116.6718	166.4117	59.46193
116.7060	166.4455	59.46169
116.7393	166.4787	59.46157
116.7727	166.5114	59.46148
116.8060	166.5453	59.46138
116.8402	166.5797	59.46118
116.8743	166.6138	59.46097
116.9077	166.6463	59.46090
116.9410	166.6784	59.46072
116.9743	166.7128	59.46050
117.0085	166.7465	59.46042
117.0427	166.7806	59.46020
117.0760	166.8132	59.46008
117.1093	166.8450	59.45996
117.1427	166.8789	59.45986
117.1776	166.9124	59.45977
117.2127	166.9470	59.45952
117.2460	166.9801	59.45934
117.2793	167.0126	59.45918
117.3127	167.0460	59.45907
117.3470	167.0811	59.45898
117.3812	167.1158	59.45891
117.4145	167.1484	59.45878
117.4478	167.1815	59.45867
117.4812	167.2152	59.45844
117.5153	167.2490	59.45832
117.5495	167.2832	59.45813
117.5828	167.3150	59.45796
117.6162	167.3486	59.45776
117.6495	167.3810	59.45764
117.6837	167.4160	59.45745
117.7175	167.4491	59.45745
117.7508	167.4817	59.45725
117.7842	167.5146	59.45717
117.8175	167.5481	59.45702
117.8525	167.5824	59.45686
117.8875	167.6202	59.45672
117.9208	167.6530	59.45672
117.9542	167.6860	59.45661
117.9875	167.7178	59.45644
118.0218	167.7523	59.45630
118.0560	167.7880	59.45628
118.0893	167.8225	59.45630
118.1227	167.8560	59.45618
118.1560	167.8892	59.45598
118.1893	167.9240	59.45582
118.2227	167.9574	59.45564
118.2560	167.9925	59.45562
118.2893	168.0256	59.45550
118.3227	168.0589	59.45531
118.3568	168.0940	59.45508
118.3910	168.1281	59.45489
118.4243	168.1617	59.45474
118.4577	168.1961	59.45467
118.4910	168.2295	59.45453
118.5252	168.2642	59.45456
118.5593	168.2975	59.45459
118.5927	168.3303	59.45447
118.6260	168.3638	59.45440
118.6593	168.3972	59.45426
118.6943	168.4335	59.45403
118.7293	168.4681	59.45391
118.7627	168.5024	59.45377
118.7960	168.5353	59.45369
118.8293	168.5695	59.45355
118.8635	168.6036	59.45350
118.8977	168.6378	59.45347
118.9310	168.6704	59.45330
118.9643	168.7022	59.45316
118.9977	168.7365	59.45302
119.0310	168.7697	59.45293
119.0643	168.8024	59.45282
119.0977	168.8364	59.45274
119.1312	168.8682	59.45261
119.1645	168.9018	59.45253
119.1987	168.9355	59.45244
119.2328	168.9692	59.45232
119.2662	169.0018	59.45220
119.2995	169.0366	59.45216
119.3328	169.0707	59.45210
119.3670	169.1049	59.45202
119.4012	169.1385	59.45200
119.4345	169.1702	59.45195
119.4675	169.2040	59.45174
119.5008	169.2378	59.45160
119.5342	169.2714	59.45149
119.5677	169.3043	59.45139
119.6010	169.3375	59.45140
119.6343	169.3704	59.45136
119.6677	169.4048	59.45124
119.7010	169.4394	59.45115
119.7343	169.4736	59.45126
119.7677	169.5060	59.45122
119.8010	169.5392	59.45107
119.8343	169.5712	59.45088
119.8677	169.6048	59.45062
119.9010	169.6386	59.45059
119.9343	169.6722	59.45057
119.9677	169.7066	59.45043
120.0010	169.7386	59.45044
120.0345	169.7720	59.45032
120.0678	169.8049	59.45015
120.1012	169.8399	59.45000
120.1345	169.8731	59.45004
120.1678	169.9056	59.45000
120.2012	169.9397	59.44990
120.2345	169.9732	59.44990
120.2678	170.0041	59.44970
120.3008	170.0361	59.44957
120.3342	170.0708	59.44944
120.3675	170.1040	59.44948
120.4008	170.1378	59.44941
120.4343	170.1708	59.44937
120.4677	170.2046	59.44934
120.5010	170.2362	59.44920
120.5343	170.2693	59.44904
120.5677	170.3040	59.44903
120.6010	170.3363	59.44898
120.6343	170.3703	59.44886
120.6677	170.4024	59.44868
120.7010	170.4350	59.44860
120.7343	170.4691	59.44859
120.7677	170.5021	59.44855
120.8010	170.5358	59.44851
120.8343	170.5673	59.44842
120.8677	170.6006	59.44828
120.9010	170.6346	59.44822
120.9343	170.6678	59.44816
120.9677	170.7010	59.44802
121.0010	170.7358	59.44787
121.0345	170.7691	59.44780
121.0678	170.8048	59.44776
121.1012	170.8377	59.44800
121.1345	170.8694	59.44790
121.1678	170.9024	59.44758
121.2012	170.9362	59.44753
121.2345	170.9689	59.44753
121.2678	171.0035	59.44750
121.3012	171.0356	59.44732
121.3345	171.0701	59.44705
121.3675	171.1030	59.44708
121.4008	171.1363	59.44693
121.4342	171.1692	59.44679
121.4677	171.2034	59.44678
121.5010	171.2363	59.44676
121.5343	171.2703	59.44665
121.5677	171.3039	59.44660
121.6010	171.3389	59.44656
121.6343	171.3721	59.44653
121.6677	171.4066	59.44649
121.7010	171.4402	59.44644
121.7343	171.4724	59.44638
121.7677	171.5062	59.44618
121.8010	171.5399	59.44604
121.8343	171.5743	59.44604
121.8677	171.6074	59.44607
121.9010	171.6403	59.44598
121.9343	171.6735	59.44590
121.9677	171.7078	59.44574
122.0010	171.7393	59.44572
122.0343	171.7730	59.44574
122.0677	171.8065	59.44587
122.1012	171.8391	59.44568
122.1345	171.8740	59.44554
122.1678	171.9072	59.44558
122.2012	171.9404	59.44560
122.2345	171.9732	59.44545
122.2678	172.0068	59.44536
122.3012	172.0402	59.44526
122.3342	172.0722	59.44516
122.3675	172.1056	59.44507
122.4025	172.1398	59.44502
122.4377	172.1750	59.44495
122.4710	172.2092	59.44493
122.5043	172.2413	59.44480
122.5377	172.2750	59.44462
122.5718	172.3093	59.44450
122.6060	172.3425	59.44446
122.6393	172.3762	59.44444
122.6727	172.4092	59.44443
122.7060	172.4428	59.44433
122.7402	172.4780	59.44432
122.7743	172.5113	59.44432
122.8077	172.5456	59.44420
122.8410	172.5791	59.44421
122.8743	172.6134	59.44416
122.9087	172.6476	59.44418
122.9428	172.6788	59.44386
122.9762	172.7134	59.44398
123.0095	172.7474	59.44406
123.0428	172.7805	59.44421
123.0758	172.8137	59.44379
123.1092	172.8465	59.44384
123.1427	172.8805	59.44380
123.1760	172.9134	59.44380
123.2093	172.9469	59.44370
123.2427	172.9791	59.44360
123.2760	173.0122	59.44348
123.3093	173.0450	59.44340
123.3427	173.0791	59.44321
123.3760	173.1115	59.44322
123.4095	173.1453	59.44324
123.4428	173.1797	59.44335
123.4762	173.2123	59.44332
123.5095	173.2452	59.44320
123.5425	173.2780	59.44314
123.5758	173.3109	59.44300
123.6093	173.3444	59.44290
123.6427	173.3771	59.44280
123.6760	173.4110	59.44278
123.7093	173.4448	59.44274
123.7427	173.4792	59.44270
123.7760	173.5117	59.44262
123.8093	173.5460	59.44255
123.8427	173.5808	59.44259
123.8760	173.6137	59.44273
123.9093	173.6461	59.44265
123.9427	173.6800	59.44258
123.9762	173.7128	59.44255
124.0095	173.7455	59.44246
124.0428	173.7784	59.44234
124.0762	173.8118	59.44236
124.1092	173.8442	59.44230
124.1425	173.8789	59.44219
124.1760	173.9132	59.44220
124.2093	173.9460	59.44229
124.2427	173.9788	59.44218
124.2760	174.0113	59.44204
124.3093	174.0437	59.44187
124.3427	174.0770	59.44180
124.3760	174.1096	59.44182
124.4093	174.1430	59.44178
124.4427	174.1761	59.44170
124.4762	174.2097	59.44168
124.5095	174.2431	59.44170
124.5428	174.2758	59.44165
124.5762	174.3091	59.44156
124.6092	174.3425	59.44144
124.6425	174.3764	59.44142
124.6760	174.4102	59.44144
124.7093	174.4446	59.44145
124.7427	174.4774	59.44135
124.7760	174.5106	59.44121
124.8093	174.5448	59.44120
124.8427	174.5778	59.44113
124.8760	174.6121	59.44105
124.9093	174.6455	59.44109
124.9427	174.6799	59.44112
124.9760	174.7137	59.44115
125.0095	174.7469	59.44106
125.0428	174.7814	59.44100
125.0762	174.8139	59.44091
125.1095	174.8466	59.44086
125.1428	174.8797	59.44090
125.1762	174.9136	59.44094
125.2095	174.9460	59.44075
125.2425	174.9787	59.44071
125.2758	175.0122	59.44072
125.3092	175.0454	59.44072
125.3427	175.0797	59.44071
125.3760	175.1112	59.44068
125.4093	175.1445	59.44066
125.4427	175.1785	59.44068
125.4760	175.2116	59.44070
125.5093	175.2458	59.44062
125.5427	175.2776	59.44050
125.5760	175.3100	59.44040
125.6093	175.3430	59.44043
125.6427	175.3755	59.44038
125.6760	175.4089	59.44034
125.7095	175.4436	59.44028
125.7428	175.4770	59.44021
125.7762	175.5108	59.44022
125.8092	175.5459	59.44018
125.8425	175.5777	59.44023
125.8760	175.6120	59.43998
125.9093	175.6450	59.43996
125.9427	175.6784	59.43995
125.9760	175.7137	59.44000
126.0093	175.7460	59.44014
126.0427	175.7797	59.44000
126.0760	175.8128	59.44004
126.1110	175.8465	59.43992
126.1460	175.8805	59.43976
126.1793	175.9136	59.43984
126.2128	175.9462	59.43977
126.2462	175.9788	59.43966
126.2803	176.0132	59.43960
126.3145	176.0462	59.43952
126.3478	176.0796	59.43948
126.3808	176.1136	59.43956
126.4143	176.1469	59.43959
126.4485	176.1788	59.43943
126.4827	176.2140	59.43926
126.5160	176.2477	59.43932
126.5493	176.2822	59.43932
126.5827	176.3145	59.43928
126.6168	176.3494	59.43922
126.6510	176.3845	59.43918
126.6843	176.4164	59.43909
126.7178	176.4492	59.43902
126.7512	176.4823	59.43898
126.7862	176.5173	59.43902
126.8212	176.5535	59.43907
126.8542	176.5885	59.43908
126.8875	176.6217	59.43904
126.9210	176.6567	59.43907
126.9552	176.6892	59.43907
126.9893	176.7242	59.43895
127.0227	176.7568	59.43891
127.0560	176.7914	59.43892
127.0893	176.8252	59.43904
127.1235	176.8594	59.43906
127.1577	176.8915	59.43894
127.1910	176.9260	59.43889
127.2243	176.9602	59.43894
127.2577	176.9925	59.43903
127.2920	177.0260	59.43891
127.3262	177.0623	59.43876
127.3595	177.0966	59.43874
127.3928	177.1316	59.43872
127.4262	177.1654	59.43878
127.4592	177.2004	59.43867
127.4925	177.2329	59.43876
127.5260	177.2661	59.43880
127.5593	177.2994	59.43882
127.5927	177.3310	59.43872
127.6260	177.3648	59.43857
127.6593	177.3986	59.43856
127.6927	177.4333	59.43855
127.7260	177.4670	59.43859
127.7593	177.4996	59.43848
127.7927	177.5339	59.43847
127.8262	177.5669	59.43840
127.8595	177.5997	59.43830
127.8928	177.6339	59.43822
127.9262	177.6669	59.43813
127.9595	177.6998	59.43805
127.9928	177.7328	59.43801
128.0258	177.7653	59.43800
128.0592	177.7972	59.43793
128.0927	177.8312	59.43793
128.1260	177.8650	59.43800
128.1593	177.8949	59.43800
128.1927	177.9287	59.43794
128.2260	177.9622	59.43793
128.2593	177.9944	59.43789
128.2927	178.0292	59.43776
128.3260	178.0644	59.43802
128.3593	178.0972	59.43814
128.3927	178.1300	59.43816
128.4262	178.1626	59.43798
128.4595	178.1942	59.43792
128.4928	178.2275	59.43782
128.5262	178.2612	59.43786
128.5595	178.2951	59.43785
128.5928	178.3273	59.43785
128.6258	178.3602	59.43778
128.6592	178.3939	59.43778
128.6927	178.4266	59.43781
128.7260	178.4599	59.43776
128.7593	178.4942	59.43766
128.7927	178.5278	59.43772
128.8260	178.5616	59.43768
128.8593	178.5952	59.43768
128.8927	178.6263	59.43764
128.9260	178.6593	59.43754
128.9593	178.6932	59.43753
128.9927	178.7267	59.43750
129.0260	178.7590	59.43747
129.0593	178.7925	59.43750
129.0927	178.8268	59.43757
129.1260	178.8606	59.43756
129.1593	178.8937	59.43757
129.1928	178.9274	59.43758
129.2262	178.9598	59.43750
129.2595	178.9916	59.43740
129.2928	179.0248	59.43732
129.3262	179.0577	59.43730
129.3592	179.0897	59.43720
129.3925	179.1233	59.43720
129.4260	179.1584	59.43719
129.4593	179.1930	59.43732
129.4927	179.2264	59.43732
129.5260	179.2594	59.43726
129.5593	179.2938	59.43711
129.5927	179.3277	59.43707
129.6260	179.3609	59.43713
129.6593	179.3942	59.43707
129.6927	179.4285	59.43704
129.7260	179.4625	59.43707
129.7593	179.4956	59.43707
129.7927	179.5277	59.43696
129.8260	179.5628	59.43692
129.8593	179.5964	59.43696
129.8928	179.6291	59.43692
129.9262	179.6624	59.43684
129.9595	179.6961	59.43680
129.9928	179.7287	59.43676
130.0262	179.7632	59.43676
130.0595	179.7961	59.43672
130.0925	179.8303	59.43661
130.1258	179.8643	59.43670
130.1592	179.8985	59.43682
130.1927	179.9304	59.43682
130.2260	179.9636	59.43671
130.2593	179.9966	59.43671
130.2927	180.0313	59.43666
130.3276	180.0651	59.43676
130.3627	180.0995	59.43674
130.3960	180.1336	59.43681
130.4293	180.1667	59.43671
130.4626	180.2001	59.43662
130.4968	180.2338	59.43656
130.5310	180.2684	59.43652
130.5643	180.3016	59.43647
