CLOSED
Version	0.4
Run	869
Instrument	2950 TGA       V5.4A
Module	TGA 1000 øC
Sample	2023_07_11_Ni_calib_1cpm
Size	14.4900	mg
Method	270C to 400C 1CPM
Operator	SBK
Comment	2023_07_11_Ni_calib_1cpm
Xcomment	Pan: Platinum           Gas1: Nitrogen  40          Gas2: Nitrogen  40
Text	2023_07_11_Ni_calib_1cpm
Text	Calibration with nickel foam and magnet
Kcell	1.00000
TempCal	0	pts
Thresholds	0.050	0.0000
Controls	Gas 1  Event Off  Sampling 2.0 sec/pt
Nsig	3
Sig1	Time (min)
Sig2	Temperature (øC)
Sig3	Weight (mg)
Date	11-Jul-23
Time	10:42
File	C:\TA\Data\TGA\Skyler\2023_07_11_Ni_calib_1cpm.002
OrgFile	C:\TA\Data\TGA\Skyler\2023_07_11_Ni_calib_1cpm.002
StartOfData
0.0000000	269.9831	14.53189
0.03283334	269.9932	14.53181
0.06783334	270.0120	14.53193
0.1028333	270.0300	14.53198
0.1361667	270.0504	14.53187
0.1695000	270.0725	14.53177
0.2028334	270.0950	14.53174
0.2370000	270.1195	14.53178
0.2711666	270.1450	14.53166
0.3045000	270.1687	14.53152
0.3378334	270.1980	14.53146
0.3711667	270.2227	14.53158
0.4053333	270.2510	14.53156
0.4395000	270.2793	14.53148
0.4728333	270.3074	14.53139
0.5061666	270.3375	14.53141
0.5395000	270.3660	14.53149
0.5736668	270.3954	14.53145
0.6078332	270.4274	14.53147
0.6411668	270.4575	14.53147
0.6745000	270.4887	14.53130
0.7078332	270.5200	14.53118
0.7428332	270.5530	14.53108
0.7778334	270.5860	14.53096
0.8111668	270.6150	14.53093
0.8445000	270.6471	14.53081
0.8778332	270.6784	14.53077
0.9120000	270.7106	14.53075
0.9461668	270.7423	14.53070
0.9795000	270.7771	14.53075
1.012833	270.8070	14.53082
1.046333	270.8391	14.53069
1.080500	270.8718	14.53063
1.114667	270.9046	14.53051
1.148000	270.9355	14.53036
1.181333	270.9687	14.53030
1.214667	271.0010	14.53028
1.248833	271.0318	14.53028
1.283000	271.0641	14.53009
1.316000	271.0964	14.53000
1.349334	271.1271	14.52995
1.382666	271.1578	14.52989
1.417666	271.1934	14.52984
1.452666	271.2276	14.52980
1.486000	271.2602	14.52974
1.519334	271.2924	14.52964
1.552666	271.3249	14.52970
1.586834	271.3579	14.52965
1.621000	271.3902	14.52951
1.654500	271.4237	14.52950
1.687834	271.4570	14.52949
1.721167	271.4878	14.52945
1.754500	271.5217	14.52947
1.787834	271.5528	14.52940
1.821167	271.5840	14.52928
1.854334	271.6167	14.52919
1.887666	271.6490	14.52914
1.921000	271.6823	14.52906
1.954334	271.7146	14.52912
1.987666	271.7462	14.52909
2.021000	271.7774	14.52894
2.054334	271.8106	14.52888
2.087666	271.8430	14.52882
2.121000	271.8770	14.52871
2.154333	271.9080	14.52859
2.187666	271.9414	14.52864
2.221000	271.9726	14.52872
2.254333	272.0072	14.52866
2.287666	272.0406	14.52856
2.321000	272.0737	14.52848
2.354334	272.1066	14.52842
2.387666	272.1390	14.52842
2.421000	272.1719	14.52845
2.454333	272.2053	14.52842
2.487666	272.2374	14.52831
2.521167	272.2702	14.52816
2.554500	272.3032	14.52811
2.587833	272.3365	14.52800
2.621167	272.3688	14.52786
2.654500	272.4018	14.52781
2.687833	272.4346	14.52777
2.721167	272.4670	14.52780
2.754500	272.4990	14.52768
2.787833	272.5339	14.52756
2.821167	272.5679	14.52755
2.854500	272.5991	14.52752
2.887833	272.6318	14.52744
2.921167	272.6657	14.52739
2.954500	272.6992	14.52742
2.987833	272.7315	14.52743
3.021167	272.7657	14.52734
3.054500	272.8012	14.52741
3.087833	272.8348	14.52740
3.121167	272.8684	14.52720
3.154500	272.9011	14.52710
3.187666	272.9332	14.52700
3.221000	272.9685	14.52699
3.254333	273.0014	14.52695
3.287666	273.0344	14.52678
3.321000	273.0679	14.52677
3.354667	273.1022	14.52671
3.388000	273.1349	14.52666
3.421333	273.1686	14.52658
3.454666	273.2014	14.52654
3.488000	273.2346	14.52652
3.521333	273.2683	14.52645
3.554667	273.3022	14.52647
3.588000	273.3343	14.52648
3.621333	273.3667	14.52640
3.654666	273.3996	14.52624
3.688000	273.4328	14.52606
3.721333	273.4659	14.52600
3.754666	273.4977	14.52596
3.788000	273.5303	14.52580
3.821333	273.5645	14.52582
3.854667	273.5988	14.52579
3.888000	273.6310	14.52584
3.921333	273.6611	14.52566
3.954666	273.6955	14.52542
3.988000	273.7293	14.52540
4.021333	273.7629	14.52535
4.054666	273.7966	14.52533
4.088000	273.8300	14.52534
4.121334	273.8628	14.52530
4.154667	273.8964	14.52523
4.188000	273.9305	14.52523
4.221334	273.9634	14.52524
4.254667	273.9972	14.52518
4.288000	274.0305	14.52506
4.321334	274.0634	14.52500
4.354667	274.0963	14.52482
4.388000	274.1308	14.52476
4.421334	274.1644	14.52469
4.455500	274.1978	14.52466
4.489666	274.2312	14.52459
4.523000	274.2660	14.52453
4.556334	274.2984	14.52450
4.589667	274.3328	14.52436
4.623833	274.3670	14.52433
4.658000	274.4022	14.52422
4.691334	274.4342	14.52412
4.724667	274.4681	14.52414
4.758000	274.5012	14.52410
4.792666	274.5370	14.52400
4.827667	274.5708	14.52398
4.861000	274.6051	14.52390
4.894333	274.6384	14.52380
4.927666	274.6731	14.52373
4.962000	274.7070	14.52370
4.996166	274.7411	14.52356
5.029500	274.7741	14.52350
5.062833	274.8080	14.52359
5.096166	274.8400	14.52352
5.130333	274.8733	14.52335
5.164500	274.9088	14.52332
5.197834	274.9417	14.52324
5.231167	274.9764	14.52324
5.264500	275.0098	14.52325
5.298666	275.0428	14.52321
5.332832	275.0772	14.52313
5.366168	275.1108	14.52304
5.399500	275.1448	14.52292
5.432832	275.1773	14.52284
5.467834	275.2122	14.52285
5.502832	275.2475	14.52289
5.536168	275.2808	14.52281
5.569668	275.3138	14.52278
5.603000	275.3459	14.52264
5.637168	275.3820	14.52251
5.671332	275.4162	14.52244
5.704668	275.4494	14.52237
5.738000	275.4836	14.52228
5.771000	275.5160	14.52225
5.805166	275.5482	14.52210
5.839334	275.5829	14.52188
5.872832	275.6170	14.52187
5.906166	275.6499	14.52190
5.939500	275.6831	14.52187
5.973668	275.7170	14.52180
6.007832	275.7508	14.52170
6.041168	275.7850	14.52166
6.074500	275.8186	14.52167
6.107832	275.8505	14.52160
6.142000	275.8851	14.52145
6.176166	275.9203	14.52144
6.209500	275.9550	14.52136
6.242832	275.9878	14.52139
6.276166	276.0200	14.52131
6.311168	276.0542	14.52115
6.346166	276.0904	14.52112
6.379500	276.1240	14.52104
6.412832	276.1584	14.52102
6.446166	276.1932	14.52099
6.480500	276.2276	14.52100
6.514668	276.2607	14.52094
6.548000	276.2934	14.52088
6.581332	276.3237	14.52087
6.614334	276.3603	14.52060
6.647666	276.3927	14.52059
6.681000	276.4277	14.52061
6.714500	276.4563	14.52029
6.747832	276.4910	14.52040
6.781168	276.5276	14.52052
6.814500	276.5569	14.52032
6.847832	276.5894	14.52002
6.881166	276.6222	14.51987
6.914500	276.6580	14.51981
6.947832	276.6912	14.51978
6.981168	276.7249	14.51976
7.014500	276.7574	14.51965
7.047832	276.7890	14.51958
7.081168	276.8234	14.51959
7.114500	276.8560	14.51954
7.147832	276.8888	14.51950
7.181334	276.9240	14.51944
7.214668	276.9596	14.51945
7.248000	276.9907	14.51949
7.281332	277.0242	14.51930
7.314668	277.0580	14.51922
7.347668	277.0895	14.51906
7.381000	277.1245	14.51895
7.414500	277.1588	14.51913
7.447832	277.1924	14.51903
7.481168	277.2248	14.51897
7.514500	277.2598	14.51888
7.547832	277.2944	14.51901
7.581168	277.3262	14.51895
7.614500	277.3581	14.51879
7.647832	277.3916	14.51856
7.681168	277.4240	14.51837
7.714500	277.4592	14.51840
7.747832	277.4932	14.51843
7.781332	277.5262	14.51832
7.814668	277.5587	14.51819
7.848000	277.5924	14.51804
7.881000	277.6258	14.51798
7.914334	277.6583	14.51796
7.947832	277.6933	14.51783
7.981168	277.7252	14.51775
8.014500	277.7588	14.51766
8.047832	277.7926	14.51766
8.081166	277.8262	14.51761
8.114500	277.8589	14.51752
8.147832	277.8928	14.51746
8.181168	277.9256	14.51736
8.214500	277.9594	14.51728
8.247832	277.9923	14.51719
8.281168	278.0260	14.51712
8.314668	278.0590	14.51714
8.348000	278.0928	14.51708
8.381332	278.1259	14.51710
8.414334	278.1580	14.51702
8.447668	278.1918	14.51686
8.481168	278.2238	14.51679
8.514500	278.2576	14.51672
8.547832	278.2910	14.51672
8.581166	278.3250	14.51671
8.614501	278.3592	14.51665
8.647832	278.3914	14.51656
8.681168	278.4252	14.51651
8.714501	278.4599	14.51652
8.747832	278.4929	14.51656
8.781168	278.5265	14.51633
8.814500	278.5607	14.51611
8.847832	278.5935	14.51599
8.881332	278.6262	14.51592
8.914668	278.6601	14.51590
8.947999	278.6930	14.51583
8.981334	278.7261	14.51567
9.014334	278.7600	14.51562
9.047668	278.7931	14.51568
9.081000	278.8282	14.51555
9.114501	278.8628	14.51556
9.147832	278.8945	14.51539
9.181168	278.9269	14.51522
9.214501	278.9604	14.51516
9.247832	278.9938	14.51514
9.281168	279.0260	14.51509
9.314500	279.0588	14.51506
9.348666	279.0913	14.51502
9.382834	279.1270	14.51477
9.416168	279.1607	14.51485
9.449500	279.1950	14.51480
9.483000	279.2291	14.51479
9.517999	279.2630	14.51452
9.553000	279.2963	14.51434
9.586334	279.3296	14.51431
9.619668	279.3627	14.51430
9.652668	279.3966	14.51426
9.686834	279.4308	14.51414
9.721000	279.4642	14.51406
9.754501	279.4985	14.51395
9.787832	279.5320	14.51389
9.821168	279.5645	14.51392
9.855332	279.5982	14.51384
9.889500	279.6342	14.51379
9.922832	279.6685	14.51372
9.956166	279.7015	14.51366
9.989501	279.7350	14.51361
10.02367	279.7702	14.51360
10.05783	279.8040	14.51363
10.09117	279.8373	14.51353
10.12450	279.8702	14.51340
10.15783	279.9024	14.51331
10.19300	279.9392	14.51314
10.22800	279.9735	14.51318
10.26133	280.0068	14.51312
10.29467	280.0402	14.51306
10.32767	280.0730	14.51310
10.36183	280.1090	14.51296
10.39617	280.1420	14.51294
10.42950	280.1745	14.51292
10.46283	280.2082	14.51282
10.49616	280.2425	14.51270
10.53033	280.2768	14.51262
10.56450	280.3110	14.51258
10.59783	280.3440	14.51236
10.63116	280.3782	14.51228
10.66450	280.4124	14.51221
10.69867	280.4454	14.51218
10.73283	280.4800	14.51218
10.76634	280.5125	14.51212
10.79967	280.5452	14.51204
10.83300	280.5795	14.51200
10.86800	280.6142	14.51192
10.90300	280.6485	14.51173
10.93600	280.6830	14.51172
10.96950	280.7150	14.51164
11.00283	280.7484	14.51155
11.03700	280.7828	14.51149
11.07117	280.8164	14.51148
11.10450	280.8498	14.51142
11.13783	280.8825	14.51136
11.17116	280.9148	14.51126
11.20533	280.9498	14.51133
11.23950	280.9856	14.51140
11.27283	281.0190	14.51125
11.30634	281.0522	14.51111
11.33967	281.0858	14.51095
11.37383	281.1208	14.51087
11.40800	281.1546	14.51081
11.44100	281.1882	14.51076
11.47434	281.2217	14.51068
11.50784	281.2558	14.51052
11.54283	281.2919	14.51044
11.57783	281.3269	14.51047
11.61117	281.3602	14.51039
11.64450	281.3934	14.51031
11.67783	281.4264	14.51027
11.71200	281.4611	14.51019
11.74616	281.4946	14.51015
11.77967	281.5266	14.51006
11.81300	281.5613	14.51001
11.84633	281.5934	14.51004
11.88050	281.6275	14.51000
11.91434	281.6614	14.50990
11.94767	281.6955	14.50978
11.98117	281.7280	14.50970
12.01450	281.7604	14.50962
12.04867	281.7950	14.50962
12.08283	281.8294	14.50957
12.11617	281.8635	14.50947
12.14950	281.8952	14.50936
12.18284	281.9289	14.50928
12.21783	281.9640	14.50921
12.25283	281.9992	14.50906
12.28633	282.0313	14.50895
12.31967	282.0654	14.50882
12.35300	282.0984	14.50882
12.38717	282.1330	14.50872
12.42133	282.1685	14.50863
12.45434	282.2013	14.50863
12.48783	282.2348	14.50852
12.52117	282.2674	14.50850
12.55450	282.3014	14.50858
12.58783	282.3346	14.50854
12.62116	282.3694	14.50853
12.65450	282.4026	14.50843
12.68784	282.4367	14.50841
12.72117	282.4715	14.50835
12.75450	282.5032	14.50816
12.78800	282.5364	14.50798
12.82133	282.5686	14.50790
12.85466	282.6022	14.50779
12.88800	282.6356	14.50778
12.92100	282.6686	14.50773
12.95434	282.7010	14.50765
12.98767	282.7348	14.50764
13.02117	282.7686	14.50755
13.05450	282.8024	14.50745
13.08783	282.8350	14.50738
13.12117	282.8672	14.50730
13.15450	282.9012	14.50729
13.18784	282.9342	14.50729
13.22117	282.9678	14.50725
13.25450	283.0008	14.50718
13.28783	283.0333	14.50712
13.32117	283.0658	14.50702
13.35450	283.0992	14.50690
13.38784	283.1332	14.50689
13.42133	283.1657	14.50681
13.45467	283.1987	14.50666
13.48800	283.2320	14.50662
13.52133	283.2650	14.50652
13.55434	283.2980	14.50644
13.58766	283.3314	14.50640
13.62117	283.3651	14.50633
13.65450	283.3978	14.50626
13.68784	283.4317	14.50624
13.72117	283.4646	14.50623
13.75450	283.4984	14.50614
13.78783	283.5315	14.50603
13.82117	283.5651	14.50596
13.85450	283.5990	14.50584
13.88784	283.6304	14.50571
13.92133	283.6664	14.50574
13.95467	283.6995	14.50567
13.98800	283.7321	14.50555
14.02133	283.7674	14.50562
14.05466	283.7985	14.50561
14.08766	283.8320	14.50549
14.12100	283.8646	14.50533
14.15450	283.8984	14.50521
14.18784	283.9314	14.50510
14.22117	283.9652	14.50516
14.25450	283.9989	14.50516
14.28783	284.0326	14.50514
14.32117	284.0654	14.50505
14.35450	284.0982	14.50498
14.38784	284.1315	14.50493
14.42133	284.1641	14.50486
14.45467	284.1982	14.50468
14.48800	284.2311	14.50459
14.52133	284.2640	14.50450
14.55434	284.2971	14.50436
14.58766	284.3306	14.50432
14.62117	284.3642	14.50434
14.65450	284.3985	14.50441
14.68784	284.4332	14.50445
14.72117	284.4665	14.50440
14.75450	284.5001	14.50438
14.78783	284.5332	14.50430
14.82117	284.5671	14.50397
14.85450	284.6014	14.50391
14.88784	284.6346	14.50387
14.92133	284.6672	14.50371
14.95467	284.7030	14.50370
14.98800	284.7373	14.50378
15.02133	284.7699	14.50378
15.05466	284.8024	14.50362
15.08766	284.8354	14.50351
15.12100	284.8684	14.50342
15.15434	284.9010	14.50331
15.18784	284.9359	14.50328
15.22117	284.9681	14.50324
15.25533	285.0022	14.50318
15.28950	285.0370	14.50314
15.32283	285.0709	14.50314
15.35617	285.1041	14.50310
15.38950	285.1368	14.50300
15.42367	285.1706	14.50286
15.45784	285.2058	14.50282
15.49133	285.2395	14.50282
15.52467	285.2720	14.50282
15.55800	285.3074	14.50280
15.59300	285.3422	14.50273
15.62767	285.3770	14.50256
15.66100	285.4108	14.50240
15.69450	285.4455	14.50236
15.72783	285.4775	14.50237
15.76200	285.5103	14.50229
15.79617	285.5448	14.50221
15.82950	285.5791	14.50216
15.86283	285.6128	14.50204
15.89617	285.6447	14.50194
15.93033	285.6792	14.50186
15.96450	285.7121	14.50181
15.99783	285.7454	14.50175
16.03134	285.7790	14.50166
16.06467	285.8119	14.50159
16.09883	285.8454	14.50148
16.13300	285.8803	14.50142
16.16634	285.9135	14.50133
16.19934	285.9459	14.50124
16.23266	285.9783	14.50122
16.26784	286.0132	14.50110
16.30283	286.0492	14.50106
16.33617	286.0818	14.50108
16.36950	286.1152	14.50098
16.40284	286.1496	14.50091
16.43700	286.1831	14.50083
16.47117	286.2174	14.50073
16.50450	286.2510	14.50064
16.53784	286.2844	14.50058
16.57117	286.3172	14.50062
16.60534	286.3524	14.50045
16.63966	286.3852	14.50027
16.67300	286.4188	14.50018
16.70633	286.4514	14.50009
16.73966	286.4850	14.49999
16.77384	286.5188	14.49982
16.80800	286.5525	14.49971
16.84100	286.5862	14.49965
16.87433	286.6206	14.49962
16.90767	286.6534	14.49957
16.94284	286.6885	14.49945
16.97783	286.7240	14.49934
17.01117	286.7588	14.49928
17.04450	286.7918	14.49918
17.07784	286.8248	14.49922
17.11200	286.8580	14.49911
17.14616	286.8948	14.49912
17.17950	286.9271	14.49906
17.21283	286.9588	14.49896
17.24617	286.9935	14.49889
17.28034	287.0288	14.49894
17.31450	287.0628	14.49891
17.34784	287.0958	14.49872
17.38116	287.1289	14.49868
17.41450	287.1628	14.49869
17.44884	287.1980	14.49872
17.48300	287.2337	14.49868
17.51633	287.2670	14.49857
17.54967	287.2991	14.49825
17.58300	287.3342	14.49819
17.61800	287.3686	14.49824
17.65300	287.4027	14.49817
17.68633	287.4360	14.49818
17.71966	287.4697	14.49822
17.75300	287.4975	14.49801
17.78684	287.5380	14.49753
17.82100	287.5722	14.49772
17.85434	287.6050	14.49774
17.88766	287.6390	14.49804
17.92100	287.6696	14.49763
17.95534	287.7028	14.49743
17.98950	287.7386	14.49729
18.02284	287.7722	14.49723
18.05617	287.8044	14.49705
18.08950	287.8394	14.49700
18.12367	287.8736	14.49695
18.15784	287.9090	14.49691
18.19116	287.9396	14.49672
18.22450	287.9740	14.49660
18.25784	288.0050	14.49667
18.29284	288.0408	14.49654
18.32784	288.0752	14.49651
18.36117	288.1094	14.49646
18.39466	288.1444	14.49649
18.42800	288.1790	14.49566
18.46216	288.2110	14.49400
18.49634	288.2414	14.49291
18.52966	288.2726	14.49255
18.56266	288.3053	14.49245
18.59600	288.3389	14.49247
18.62934	288.3682	14.49214
18.66284	288.4064	14.49220
18.69617	288.4385	14.49217
18.72950	288.4739	14.49235
18.76283	288.5035	14.49199
18.79617	288.5368	14.49185
18.82950	288.5701	14.49179
18.86283	288.6054	14.49172
18.89616	288.6400	14.49178
18.92950	288.6728	14.49176
18.96283	288.7056	14.49166
18.99617	288.7402	14.49156
19.02950	288.7724	14.49144
19.06284	288.8042	14.49124
19.09617	288.8384	14.49122
19.12967	288.8722	14.49118
19.16300	288.9064	14.49105
19.19633	288.9432	14.49114
19.22966	288.9748	14.49132
19.26300	289.0087	14.49110
19.29600	289.0410	14.49102
19.32934	289.0750	14.49093
19.36283	289.1080	14.49096
19.39616	289.1422	14.49084
19.42950	289.1768	14.49075
19.46283	289.2106	14.49073
19.49617	289.2406	14.49061
19.52950	289.2740	14.49035
19.56284	289.3070	14.49042
19.59617	289.3404	14.49025
19.62950	289.3756	14.49022
19.66284	289.4088	14.49010
19.69617	289.4424	14.49004
19.72950	289.4755	14.49012
19.76283	289.5088	14.49011
19.79617	289.5430	14.49004
19.82950	289.5778	14.49004
19.86283	289.6110	14.48989
19.89616	289.6438	14.48974
19.92950	289.6756	14.48953
19.96283	289.7102	14.48929
19.99617	289.7448	14.48936
20.02950	289.7779	14.48928
20.06284	289.8113	14.48922
20.09617	289.8453	14.48924
20.12950	289.8786	14.48923
20.16284	289.9120	14.48913
20.19617	289.9448	14.48903
20.22950	289.9782	14.48889
20.26283	290.0122	14.48885
20.29617	290.0436	14.48878
20.32966	290.0772	14.48873
20.36300	290.1104	14.48870
20.39633	290.1430	14.48865
20.42966	290.1768	14.48851
20.46300	290.2102	14.48842
20.49634	290.2428	14.48826
20.52966	290.2774	14.48814
20.56266	290.3094	14.48810
20.59600	290.3418	14.48802
20.62934	290.3766	14.48795
20.66266	290.4126	14.48806
20.69617	290.4444	14.48808
20.72950	290.4780	14.48802
20.76283	290.5113	14.48790
20.79617	290.5443	14.48780
20.82950	290.5779	14.48772
20.86283	290.6105	14.48763
20.89616	290.6447	14.48753
20.92950	290.6785	14.48745
20.96283	290.7116	14.48741
20.99617	290.7442	14.48733
21.02950	290.7779	14.48728
21.06284	290.8113	14.48722
21.09617	290.8425	14.48714
21.12950	290.8750	14.48706
21.16284	290.9095	14.48681
21.19617	290.9430	14.48682
21.22950	290.9772	14.48686
21.26283	291.0119	14.48687
21.29617	291.0437	14.48672
21.33034	291.0780	14.48658
21.36450	291.1138	14.48654
21.39783	291.1465	14.48657
21.43117	291.1792	14.48646
21.46450	291.2120	14.48637
21.49783	291.2449	14.48633
21.53117	291.2780	14.48624
21.56450	291.3116	14.48621
21.59783	291.3443	14.48604
21.63117	291.3781	14.48586
21.66450	291.4117	14.48577
21.69783	291.4465	14.48572
21.73117	291.4772	14.48586
21.76450	291.5096	14.48573
21.79783	291.5438	14.48565
21.83117	291.5756	14.48562
21.86450	291.6087	14.48545
21.89783	291.6448	14.48543
21.93117	291.6765	14.48545
21.96450	291.7108	14.48537
21.99783	291.7430	14.48527
22.03117	291.7755	14.48510
22.06450	291.8091	14.48500
22.09783	291.8422	14.48491
22.13117	291.8766	14.48488
22.16450	291.9095	14.48488
22.19783	291.9426	14.48478
22.23133	291.9768	14.48478
22.26467	292.0098	14.48480
22.29800	292.0416	14.48467
22.33133	292.0738	14.48442
22.36467	292.1092	14.48433
22.39800	292.1418	14.48433
22.43133	292.1768	14.48420
22.46467	292.2130	14.48411
22.49800	292.2457	14.48427
22.53133	292.2765	14.48406
22.56467	292.3100	14.48394
22.59800	292.3436	14.48392
22.63133	292.3776	14.48378
22.66467	292.4126	14.48372
22.69800	292.4451	14.48379
22.73133	292.4776	14.48372
22.76434	292.5102	14.48365
22.79766	292.5444	14.48356
22.83100	292.5768	14.48345
22.86434	292.6108	14.48330
22.89766	292.6428	14.48330
22.93100	292.6766	14.48312
22.96434	292.7108	14.48303
22.99766	292.7462	14.48310
23.03100	292.7781	14.48303
23.06450	292.8114	14.48302
23.09783	292.8446	14.48288
23.13117	292.8777	14.48273
23.16450	292.9108	14.48256
23.19783	292.9447	14.48247
23.23117	292.9788	14.48250
23.26450	293.0121	14.48244
23.29783	293.0447	14.48234
23.33117	293.0800	14.48229
23.36450	293.1136	14.48222
23.39783	293.1463	14.48221
23.43117	293.1796	14.48217
23.46450	293.2128	14.48213
23.49783	293.2469	14.48202
23.53117	293.2802	14.48192
23.56450	293.3121	14.48191
23.59783	293.3459	14.48184
23.63117	293.3794	14.48175
23.66450	293.4122	14.48150
23.69783	293.4459	14.48132
23.73117	293.4791	14.48137
23.76450	293.5130	14.48132
23.79783	293.5454	14.48144
23.83117	293.5788	14.48145
23.86434	293.6130	14.48140
23.89766	293.6470	14.48142
23.93100	293.6795	14.48120
23.96434	293.7131	14.48102
23.99766	293.7466	14.48086
24.03100	293.7801	14.48074
24.06434	293.8140	14.48067
24.09766	293.8479	14.48057
24.13100	293.8804	14.48048
24.16434	293.9132	14.48042
24.19766	293.9465	14.48040
24.23100	293.9808	14.48036
24.26434	294.0125	14.48018
24.29766	294.0461	14.47999
24.33117	294.0788	14.47999
24.36450	294.1112	14.47989
24.39783	294.1436	14.47980
24.43117	294.1761	14.47970
24.46450	294.2106	14.47964
24.49783	294.2433	14.47958
24.53117	294.2765	14.47951
24.56450	294.3109	14.47951
24.59783	294.3424	14.47944
24.63117	294.3752	14.47936
24.66450	294.4092	14.47931
24.69783	294.4421	14.47931
24.73117	294.4758	14.47925
24.76450	294.5108	14.47913
24.79783	294.5438	14.47915
24.83117	294.5770	14.47902
24.86450	294.6090	14.47894
24.89783	294.6430	14.47890
24.93117	294.6760	14.47886
24.96450	294.7095	14.47877
24.99783	294.7433	14.47867
25.03117	294.7760	14.47858
25.06450	294.8104	14.47855
25.09783	294.8430	14.47844
25.13117	294.8774	14.47829
25.16450	294.9121	14.47825
25.19783	294.9451	14.47817
25.23117	294.9775	14.47813
25.26450	295.0105	14.47804
25.29783	295.0441	14.47782
25.33117	295.0778	14.47776
25.36450	295.1114	14.47772
25.39783	295.1438	14.47766
25.43117	295.1763	14.47756
25.46450	295.2095	14.47749
25.49783	295.2430	14.47743
25.53117	295.2780	14.47737
25.56450	295.3122	14.47740
25.59783	295.3444	14.47729
25.63117	295.3785	14.47716
25.66450	295.4114	14.47716
25.69783	295.4446	14.47706
25.73117	295.4780	14.47701
25.76450	295.5110	14.47690
25.79783	295.5452	14.47689
25.83117	295.5777	14.47688
25.86450	295.6120	14.47690
25.89783	295.6470	14.47697
25.93116	295.6798	14.47690
25.96450	295.7145	14.47672
25.99783	295.7466	14.47659
26.03116	295.7794	14.47642
26.06450	295.8125	14.47631
26.09783	295.8444	14.47627
26.13117	295.8787	14.47622
26.16450	295.9114	14.47616
26.19783	295.9442	14.47606
26.23117	295.9775	14.47600
26.26450	296.0107	14.47594
26.29783	296.0438	14.47584
26.33117	296.0766	14.47574
26.36450	296.1102	14.47566
26.39783	296.1436	14.47559
26.43116	296.1760	14.47549
26.46450	296.2098	14.47544
26.49783	296.2426	14.47534
26.53116	296.2762	14.47522
26.56450	296.3103	14.47513
26.59783	296.3440	14.47510
26.63117	296.3780	14.47512
26.66450	296.4106	14.47502
26.69783	296.4436	14.47492
26.73117	296.4780	14.47490
26.76450	296.5109	14.47481
26.79783	296.5438	14.47469
26.83117	296.5766	14.47461
26.86450	296.6092	14.47450
26.89867	296.6438	14.47446
26.93284	296.6780	14.47441
26.96617	296.7125	14.47434
26.99950	296.7447	14.47426
27.03284	296.7781	14.47415
27.06784	296.8140	14.47409
27.10283	296.8486	14.47404
27.13617	296.8824	14.47399
27.16950	296.9147	14.47382
27.20283	296.9490	14.47373
27.23700	296.9832	14.47380
27.27117	297.0185	14.47380
27.30450	297.0544	14.47391
27.33783	297.0850	14.47377
27.37117	297.1185	14.47364
27.40533	297.1531	14.47361
27.43950	297.1870	14.47347
27.47283	297.2215	14.47338
27.50617	297.2532	14.47340
27.53950	297.2854	14.47328
27.57367	297.3200	14.47314
27.60784	297.3550	14.47306
27.64117	297.3864	14.47296
27.67450	297.4210	14.47297
27.70784	297.4531	14.47304
27.74284	297.4868	14.47286
27.77784	297.5249	14.47277
27.81117	297.5582	14.47278
27.84434	297.5910	14.47263
27.87766	297.6240	14.47256
27.91183	297.6582	14.47249
27.94600	297.6924	14.47244
27.97934	297.7264	14.47235
28.01267	297.7584	14.47214
28.04600	297.7932	14.47201
28.07934	297.8270	14.47202
28.11267	297.8609	14.47202
28.14600	297.8924	14.47206
28.17934	297.9270	14.47198
28.21267	297.9607	14.47192
28.24600	297.9944	14.47179
28.27934	298.0271	14.47164
28.31266	298.0606	14.47153
28.34600	298.0940	14.47146
28.37934	298.1272	14.47145
28.41266	298.1615	14.47150
28.44600	298.1948	14.47151
28.47934	298.2290	14.47138
28.51267	298.2637	14.47124
28.54600	298.2964	14.47114
28.57934	298.3291	14.47120
28.61267	298.3606	14.47099
28.64600	298.3955	14.47075
28.67934	298.4280	14.47077
28.71267	298.4620	14.47074
28.74600	298.4958	14.47079
28.77934	298.5283	14.47072
28.81266	298.5619	14.47064
28.84600	298.5940	14.47059
28.87966	298.6276	14.47046
28.91300	298.6622	14.47043
28.94633	298.6944	14.47042
28.97966	298.7267	14.47023
29.01300	298.7609	14.47012
29.04633	298.7936	14.47013
29.07966	298.8263	14.47016
29.11300	298.8594	14.47008
29.14634	298.8932	14.46994
29.17950	298.9260	14.46984
29.21283	298.9592	14.46981
29.24617	298.9924	14.46976
29.27950	299.0264	14.46968
29.31283	299.0590	14.46963
29.34617	299.0912	14.46951
29.37950	299.1246	14.46947
29.41284	299.1577	14.46950
29.44617	299.1909	14.46941
29.47950	299.2244	14.46937
29.51283	299.2573	14.46932
29.54617	299.2893	14.46921
29.57950	299.3227	14.46912
29.61283	299.3558	14.46903
29.64617	299.3893	14.46890
29.67950	299.4220	14.46878
29.71283	299.4555	14.46871
29.74617	299.4890	14.46870
29.77950	299.5226	14.46856
29.81283	299.5574	14.46837
29.84617	299.5902	14.46827
29.87934	299.6238	14.46822
29.91266	299.6565	14.46818
29.94633	299.6912	14.46811
29.97966	299.7254	14.46805
30.01300	299.7586	14.46802
30.04633	299.7916	14.46797
30.07966	299.8254	14.46791
30.11300	299.8598	14.46791
30.14617	299.8932	14.46779
30.17950	299.9260	14.46763
30.21283	299.9594	14.46752
30.24617	299.9922	14.46742
30.27950	300.0250	14.46729
30.31283	300.0594	14.46732
30.34617	300.0920	14.46719
30.37950	300.1248	14.46713
30.41284	300.1583	14.46706
30.44617	300.1899	14.46691
30.47950	300.2259	14.46691
30.51283	300.2607	14.46703
30.54617	300.2955	14.46709
30.57950	300.3278	14.46697
30.61283	300.3612	14.46668
30.64600	300.3964	14.46659
30.67934	300.4280	14.46651
30.71267	300.4612	14.46650
30.74634	300.4947	14.46654
30.78050	300.5290	14.46643
30.81467	300.5625	14.46630
30.84800	300.5950	14.46622
30.88133	300.6282	14.46609
30.91467	300.6622	14.46599
30.94867	300.6950	14.46584
30.98284	300.7286	14.46570
31.01617	300.7630	14.46563
31.04950	300.7985	14.46566
31.08284	300.8313	14.46580
31.11784	300.8644	14.46564
31.15284	300.8985	14.46550
31.18617	300.9317	14.46541
31.21950	300.9650	14.46536
31.25283	300.9982	14.46532
31.28700	301.0332	14.46524
31.32117	301.0682	14.46519
31.35450	301.1013	14.46511
31.38783	301.1341	14.46503
31.42100	301.1680	14.46496
31.45516	301.2022	14.46500
31.48967	301.2372	14.46493
31.52300	301.2720	14.46492
31.55633	301.3066	14.46491
31.58967	301.3386	14.46468
31.62383	301.3730	14.46445
31.65800	301.4068	14.46438
31.69116	301.4394	14.46426
31.72450	301.4720	14.46410
31.75784	301.5052	14.46404
31.79284	301.5395	14.46388
31.82783	301.5735	14.46366
31.86117	301.6074	14.46365
31.89450	301.6407	14.46367
31.92783	301.6742	14.46363
31.96117	301.7069	14.46350
31.99450	301.7402	14.46337
32.02783	301.7740	14.46330
32.06116	301.8059	14.46324
32.09450	301.8419	14.46310
32.12784	301.8743	14.46315
32.16117	301.9067	14.46298
32.19434	301.9411	14.46293
32.22766	301.9735	14.46299
32.26100	302.0064	14.46286
32.29434	302.0410	14.46283
32.32800	302.0736	14.46276
32.36133	302.1075	14.46272
32.39466	302.1403	14.46262
32.42800	302.1724	14.46240
32.46133	302.2076	14.46243
32.49466	302.2423	14.46252
32.52800	302.2756	14.46255
32.56133	302.3094	14.46252
32.59450	302.3448	14.46230
32.62784	302.3777	14.46214
32.66117	302.4109	14.46202
32.69450	302.4441	14.46195
32.72783	302.4767	14.46193
32.76117	302.5096	14.46186
32.79450	302.5431	14.46178
32.82784	302.5762	14.46168
32.86117	302.6091	14.46159
32.89450	302.6427	14.46155
32.92783	302.6758	14.46156
32.96117	302.7094	14.46149
32.99434	302.7418	14.46132
33.02766	302.7747	14.46122
33.06133	302.8070	14.46106
33.09466	302.8398	14.46096
33.12800	302.8741	14.46090
33.16133	302.9074	14.46079
33.19450	302.9394	14.46071
33.22783	302.9715	14.46070
33.26117	303.0042	14.46057
33.29450	303.0384	14.46044
33.32784	303.0719	14.46038
33.36117	303.1041	14.46029
33.39450	303.1379	14.46023
33.42783	303.1719	14.46019
33.46117	303.2045	14.46010
33.49450	303.2380	14.46004
33.52783	303.2725	14.46004
33.56116	303.3062	14.45995
33.59433	303.3392	14.45986
33.62766	303.3711	14.45976
33.66133	303.4068	14.45976
33.69467	303.4410	14.45978
33.72800	303.4754	14.45966
33.76133	303.5085	14.45961
33.79466	303.5418	14.45945
33.82800	303.5748	14.45938
33.86117	303.6069	14.45922
33.89450	303.6408	14.45922
33.92783	303.6744	14.45916
33.96117	303.7076	14.45907
33.99450	303.7408	14.45896
34.02783	303.7755	14.45893
34.06116	303.8084	14.45889
34.09450	303.8415	14.45873
34.12784	303.8746	14.45861
34.16117	303.9094	14.45861
34.19450	303.9420	14.45852
34.22783	303.9759	14.45849
34.26117	304.0080	14.45843
34.29450	304.0406	14.45828
34.32784	304.0748	14.45812
34.36117	304.1087	14.45796
34.39433	304.1423	14.45794
34.42766	304.1746	14.45790
34.46100	304.2079	14.45785
34.49434	304.2410	14.45776
34.52766	304.2726	14.45763
34.56100	304.3082	14.45752
34.59433	304.3406	14.45751
34.62766	304.3738	14.45749
34.66184	304.4080	14.45751
34.69634	304.4439	14.45752
34.72967	304.4770	14.45755
34.76300	304.5108	14.45739
34.79633	304.5454	14.45724
34.83050	304.5780	14.45706
34.86467	304.6116	14.45692
34.89800	304.6444	14.45680
34.93133	304.6784	14.45667
34.96467	304.7107	14.45656
34.99883	304.7455	14.45640
35.03300	304.7793	14.45637
35.06633	304.8125	14.45640
35.09950	304.8455	14.45632
35.13283	304.8779	14.45616
35.16783	304.9128	14.45601
35.20284	304.9486	14.45592
35.23617	304.9826	14.45592
35.26950	305.0154	14.45581
35.30283	305.0472	14.45564
35.33700	305.0814	14.45557
35.37117	305.1160	14.45555
35.40450	305.1494	14.45548
35.43783	305.1842	14.45541
35.47117	305.2165	14.45536
35.50433	305.2498	14.45528
35.53766	305.2838	14.45526
35.57100	305.3174	14.45521
35.60433	305.3500	14.45512
35.63800	305.3838	14.45500
35.67133	305.4164	14.45487
35.70466	305.4507	14.45471
35.73800	305.4836	14.45463
35.77133	305.5152	14.45454
35.80467	305.5481	14.45445
35.83783	305.5826	14.45432
35.87117	305.6160	14.45421
35.90450	305.6499	14.45422
35.93783	305.6814	14.45415
35.97117	305.7165	14.45398
36.00450	305.7510	14.45402
36.03784	305.7827	14.45405
36.07117	305.8159	14.45392
36.10450	305.8510	14.45380
36.13783	305.8846	14.45375
36.17117	305.9180	14.45365
36.20450	305.9500	14.45355
36.23784	305.9836	14.45358
36.27117	306.0164	14.45352
36.30450	306.0488	14.45341
36.33783	306.0820	14.45330
36.37117	306.1154	14.45324
36.40450	306.1493	14.45321
36.43783	306.1834	14.45316
36.47117	306.2154	14.45309
36.50450	306.2475	14.45292
36.53784	306.2846	14.45282
36.57117	306.3161	14.45291
36.60450	306.3487	14.45280
36.63783	306.3841	14.45266
36.67117	306.4166	14.45266
36.70450	306.4500	14.45252
36.73784	306.4836	14.45250
36.77117	306.5167	14.45239
36.80450	306.5502	14.45232
36.83783	306.5838	14.45227
36.87117	306.6181	14.45218
36.90433	306.6506	14.45211
36.93767	306.6844	14.45203
36.97100	306.7180	14.45196
37.00433	306.7503	14.45187
37.03766	306.7840	14.45182
37.07100	306.8183	14.45186
37.10467	306.8506	14.45173
37.13800	306.8842	14.45155
37.17133	306.9180	14.45144
37.20466	306.9510	14.45135
37.23800	306.9844	14.45134
37.27133	307.0182	14.45126
37.30450	307.0520	14.45127
37.33783	307.0857	14.45120
37.37117	307.1180	14.45105
37.40450	307.1530	14.45106
37.43783	307.1852	14.45101
37.47117	307.2178	14.45080
37.50450	307.2510	14.45067
37.53784	307.2834	14.45063
37.57117	307.3180	14.45060
37.60450	307.3525	14.45053
37.63783	307.3850	14.45043
37.67117	307.4185	14.45036
37.70450	307.4518	14.45027
37.73784	307.4845	14.45025
37.77117	307.5178	14.45014
37.80450	307.5494	14.45004
37.83783	307.5822	14.44994
37.87117	307.6162	14.44993
37.90450	307.6498	14.44995
37.93783	307.6826	14.44991
37.97117	307.7165	14.44980
38.00450	307.7498	14.44974
38.03784	307.7833	14.44961
38.07117	307.8171	14.44951
38.10450	307.8496	14.44940
38.13766	307.8820	14.44931
38.17100	307.9164	14.44922
38.20433	307.9499	14.44919
38.23767	307.9825	14.44914
38.27133	308.0168	14.44907
38.30467	308.0497	14.44900
38.33800	308.0823	14.44895
38.37134	308.1162	14.44890
38.40466	308.1494	14.44893
38.43800	308.1836	14.44890
38.47133	308.2168	14.44880
38.50466	308.2504	14.44872
38.53784	308.2838	14.44863
38.57117	308.3172	14.44856
38.60450	308.3514	14.44850
38.63783	308.3840	14.44840
38.67117	308.4171	14.44830
38.70450	308.4502	14.44826
38.73784	308.4835	14.44818
38.77117	308.5158	14.44808
38.80450	308.5493	14.44799
38.83783	308.5824	14.44792
38.87117	308.6166	14.44784
38.90450	308.6500	14.44775
38.93783	308.6830	14.44767
38.97117	308.7168	14.44756
39.00450	308.7500	14.44749
39.03784	308.7830	14.44736
39.07117	308.8178	14.44731
39.10450	308.8511	14.44728
39.13783	308.8845	14.44719
39.17117	308.9173	14.44713
39.20450	308.9520	14.44708
39.23767	308.9852	14.44705
39.27100	309.0183	14.44696
39.30433	309.0510	14.44685
39.33800	309.0848	14.44676
39.37134	309.1190	14.44669
39.40466	309.1517	14.44674
39.43800	309.1848	14.44666
39.47133	309.2186	14.44660
39.50466	309.2528	14.44650
39.53800	309.2859	14.44642
39.57134	309.3196	14.44638
39.60467	309.3521	14.44633
39.63800	309.3846	14.44629
39.67133	309.4180	14.44622
39.70466	309.4529	14.44620
39.73800	309.4855	14.44611
39.77117	309.5184	14.44601
39.80450	309.5508	14.44581
39.83783	309.5850	14.44575
39.87117	309.6182	14.44569
39.90450	309.6517	14.44566
39.93783	309.6856	14.44562
39.97117	309.7195	14.44558
40.00450	309.7526	14.44552
40.03784	309.7868	14.44545
40.07117	309.8200	14.44542
40.10450	309.8537	14.44525
40.13783	309.8872	14.44522
40.17117	309.9223	14.44516
40.20450	309.9534	14.44518
40.23784	309.9858	14.44498
40.27117	310.0192	14.44492
40.30450	310.0522	14.44486
40.33783	310.0846	14.44476
40.37117	310.1175	14.44464
40.40450	310.1500	14.44466
40.43783	310.1842	14.44462
40.47117	310.2166	14.44458
40.50450	310.2506	14.44445
40.53784	310.2842	14.44432
40.57117	310.3165	14.44434
40.60450	310.3496	14.44434
40.63783	310.3835	14.44428
40.67117	310.4172	14.44423
40.70450	310.4520	14.44406
40.73784	310.4848	14.44393
40.77117	310.5174	14.44383
40.80450	310.5500	14.44371
40.83766	310.5834	14.44361
40.87100	310.6158	14.44352
40.90433	310.6492	14.44346
40.93767	310.6815	14.44326
40.97100	310.7140	14.44313
41.00467	310.7478	14.44303
41.03800	310.7812	14.44296
41.07133	310.8148	14.44292
41.10467	310.8494	14.44286
41.13800	310.8820	14.44275
41.17133	310.9155	14.44263
41.20467	310.9482	14.44259
41.23800	310.9818	14.44254
41.27133	311.0139	14.44241
41.30467	311.0480	14.44236
41.33800	311.0810	14.44232
41.37133	311.1148	14.44220
41.40467	311.1466	14.44203
41.43800	311.1818	14.44196
41.47133	311.2134	14.44216
41.50467	311.2441	14.44192
41.53800	311.2802	14.44180
41.57133	311.3125	14.44184
41.60467	311.3460	14.44179
41.63800	311.3790	14.44175
41.67133	311.4137	14.44177
41.70467	311.4478	14.44179
41.73766	311.4794	14.44156
41.77100	311.5160	14.44144
41.80434	311.5479	14.44146
41.83800	311.5805	14.44133
41.87133	311.6138	14.44128
41.90467	311.6474	14.44128
41.93800	311.6811	14.44121
41.97133	311.7148	14.44110
42.00467	311.7491	14.44103
42.03800	311.7830	14.44102
42.07133	311.8160	14.44104
42.10467	311.8492	14.44094
42.13800	311.8836	14.44091
42.17133	311.9180	14.44095
42.20467	311.9495	14.44093
42.23800	311.9832	14.44069
42.27133	312.0183	14.44047
42.30467	312.0504	14.44036
42.33783	312.0838	14.44031
42.37117	312.1189	14.44026
42.40450	312.1513	14.44020
42.43783	312.1846	14.44011
42.47117	312.2185	14.44019
42.50450	312.2514	14.44021
42.53784	312.2846	14.44019
42.57117	312.3186	14.44020
42.60450	312.3517	14.44020
42.63783	312.3846	14.44017
42.67117	312.4194	14.44012
42.70450	312.4528	14.44011
42.73784	312.4848	14.44009
42.77117	312.5200	14.43995
42.80450	312.5533	14.43987
42.83783	312.5856	14.43981
42.87117	312.6192	14.43970
42.90450	312.6518	14.43967
42.93783	312.6862	14.43970
42.97117	312.7189	14.43975
43.00450	312.7520	14.43970
43.03784	312.7859	14.43970
43.07117	312.8180	14.43965
43.10450	312.8523	14.43951
43.13783	312.8850	14.43940
43.17117	312.9181	14.43925
43.20450	312.9502	14.43918
43.23784	312.9838	14.43916
43.27117	313.0173	14.43914
43.30450	313.0502	14.43911
43.33783	313.0835	14.43904
43.37117	313.1182	14.43900
43.40450	313.1509	14.43902
43.43783	313.1844	14.43892
43.47117	313.2182	14.43890
43.50450	313.2516	14.43909
43.53784	313.2854	14.43911
43.57117	313.3193	14.43910
43.60533	313.3539	14.43906
43.63950	313.3871	14.43889
43.67283	313.4206	14.43880
43.70616	313.4537	14.43880
43.73967	313.4873	14.43874
43.77383	313.5218	14.43864
43.80800	313.5545	14.43850
43.84133	313.5867	14.43838
43.87467	313.6208	14.43830
43.90800	313.6549	14.43834
43.94300	313.6878	14.43827
43.97800	313.7203	14.43802
44.01133	313.7554	14.43792
44.04467	313.7898	14.43798
44.07800	313.8245	14.43806
44.11217	313.8569	14.43810
44.14633	313.8900	14.43786
44.17967	313.9222	14.43772
44.21300	313.9568	14.43769
44.24633	313.9902	14.43769
44.28050	314.0240	14.43766
44.31467	314.0576	14.43755
44.34800	314.0898	14.43743
44.38133	314.1238	14.43739
44.41467	314.1570	14.43734
44.44867	314.1920	14.43723
44.48283	314.2262	14.43717
44.51617	314.2605	14.43710
44.54950	314.2942	14.43700
44.58283	314.3271	14.43700
44.61783	314.3627	14.43690
44.65283	314.3982	14.43681
44.68616	314.4320	14.43676
44.71950	314.4663	14.43670
44.75284	314.4991	14.43668
44.78700	314.5332	14.43664
44.82117	314.5670	14.43665
44.85450	314.6008	14.43651
44.88783	314.6360	14.43644
44.92117	314.6702	14.43645
44.95533	314.7041	14.43644
44.98950	314.7378	14.43639
45.02283	314.7720	14.43631
45.05617	314.8043	14.43622
45.08933	314.8388	14.43610
45.12350	314.8728	14.43601
45.15766	314.9062	14.43594
45.19100	314.9393	14.43594
45.22467	314.9730	14.43597
45.25800	315.0066	14.43594
45.29300	315.0425	14.43592
45.32800	315.0782	14.43589
45.36133	315.1123	14.43591
45.39467	315.1444	14.43590
45.42800	315.1792	14.43589
45.46216	315.2134	14.43588
45.49633	315.2470	14.43582
45.52967	315.2800	14.43578
45.56300	315.3138	14.43578
45.59633	315.3470	14.43566
45.63050	315.3810	14.43555
45.66450	315.4129	14.43534
45.69783	315.4465	14.43518
45.73117	315.4795	14.43515
45.76450	315.5120	14.43509
45.79867	315.5466	14.43499
45.83283	315.5804	14.43491
45.86617	315.6134	14.43484
45.89950	315.6473	14.43500
45.93283	315.6809	14.43506
45.96617	315.7148	14.43503
45.99950	315.7486	14.43498
46.03283	315.7820	14.43501
46.06617	315.8137	14.43490
46.09950	315.8459	14.43478
46.13283	315.8811	14.43468
46.16617	315.9142	14.43465
46.19950	315.9463	14.43464
46.23283	315.9807	14.43460
46.26617	316.0128	14.43448
46.29950	316.0446	14.43433
46.33283	316.0780	14.43418
46.36617	316.1121	14.43412
46.39950	316.1415	14.43396
46.43283	316.1778	14.43396
46.46617	316.2105	14.43396
46.49950	316.2436	14.43389
46.53283	316.2789	14.43387
46.56617	316.3106	14.43381
46.59950	316.3440	14.43365
46.63283	316.3780	14.43358
46.66617	316.4111	14.43352
46.69950	316.4455	14.43357
46.73283	316.4784	14.43362
46.76617	316.5130	14.43360
46.79933	316.5459	14.43366
46.83267	316.5789	14.43358
46.86600	316.6124	14.43342
46.89934	316.6446	14.43339
46.93300	316.6780	14.43341
46.96633	316.7114	14.43322
46.99967	316.7450	14.43309
47.03300	316.7785	14.43309
47.06633	316.8115	14.43312
47.09967	316.8450	14.43310
47.13300	316.8784	14.43301
47.16633	316.9120	14.43282
47.19966	316.9422	14.43259
47.23300	316.9806	14.43246
47.26617	317.0130	14.43282
47.29950	317.0475	14.43292
47.33283	317.0756	14.43270
47.36617	317.1098	14.43250
47.39950	317.1441	14.43258
47.43283	317.1772	14.43246
47.46617	317.2106	14.43230
47.49950	317.2436	14.43222
47.53283	317.2777	14.43220
47.56617	317.3106	14.43220
47.59950	317.3436	14.43213
47.63283	317.3744	14.43181
47.66617	317.4119	14.43211
47.69950	317.4482	14.43244
47.73283	317.4768	14.43246
47.76617	317.5105	14.43210
47.79950	317.5450	14.43199
47.83283	317.5772	14.43196
47.86617	317.6099	14.43186
47.89950	317.6440	14.43185
47.93283	317.6791	14.43178
47.96617	317.7119	14.43184
47.99950	317.7438	14.43169
48.03283	317.7770	14.43161
48.06617	317.8095	14.43147
48.09950	317.8445	14.43134
48.13283	317.8782	14.43138
48.16617	317.9116	14.43133
48.19950	317.9458	14.43131
48.23283	317.9789	14.43120
48.26617	318.0118	14.43109
48.29933	318.0455	14.43086
48.33267	318.0814	14.43090
48.36633	318.1168	14.43111
48.39966	318.1471	14.43112
48.43300	318.1822	14.43094
48.46633	318.2138	14.43089
48.49967	318.2470	14.43072
48.53283	318.2794	14.43062
48.56617	318.3123	14.43062
48.59950	318.3461	14.43050
48.63283	318.3795	14.43049
48.66783	318.4136	14.43042
48.70284	318.4485	14.43030
48.73617	318.4815	14.43028
48.76950	318.5156	14.43030
48.80283	318.5495	14.43026
48.83700	318.5826	14.43023
48.87117	318.6176	14.43030
48.90450	318.6503	14.43019
48.93783	318.6828	14.42998
48.97117	318.7170	14.42983
49.00533	318.7518	14.42988
49.03950	318.7858	14.42990
49.07283	318.8191	14.42988
49.10617	318.8524	14.42979
49.13950	318.8853	14.42967
49.17367	318.9207	14.42956
49.20783	318.9536	14.42947
49.24117	318.9859	14.42932
49.27450	319.0209	14.42934
49.30783	319.0549	14.42931
49.34283	319.0891	14.42932
49.37784	319.1261	14.42931
49.41117	319.1584	14.42930
49.44450	319.1920	14.42926
49.47783	319.2251	14.42912
49.51200	319.2575	14.42898
49.54600	319.2917	14.42892
49.57934	319.3265	14.42894
49.61266	319.3596	14.42892
49.64600	319.3928	14.42894
49.67934	319.4275	14.42889
49.71266	319.4602	14.42881
49.74600	319.4934	14.42872
49.77967	319.5263	14.42863
49.81300	319.5603	14.42860
49.84633	319.5940	14.42851
49.87967	319.6270	14.42844
49.91300	319.6605	14.42841
49.94633	319.6944	14.42837
49.97967	319.7264	14.42836
50.01300	319.7600	14.42823
50.04633	319.7921	14.42811
50.07967	319.8264	14.42813
50.11300	319.8610	14.42812
50.14633	319.8950	14.42799
50.17950	319.9270	14.42797
50.21283	319.9606	14.42782
50.24617	319.9940	14.42778
50.27950	320.0274	14.42764
50.31283	320.0591	14.42749
50.34617	320.0910	14.42728
50.37950	320.1244	14.42721
50.41284	320.1594	14.42729
50.44617	320.1952	14.42733
50.47950	320.2270	14.42735
50.51283	320.2604	14.42721
50.54617	320.2925	14.42712
50.57950	320.3260	14.42713
50.61284	320.3572	14.42706
50.64617	320.3906	14.42688
50.67950	320.4260	14.42681
50.71266	320.4611	14.42694
50.74600	320.4934	14.42692
50.77934	320.5274	14.42682
50.81266	320.5602	14.42679
50.84600	320.5938	14.42672
50.87967	320.6263	14.42667
50.91300	320.6609	14.42674
50.94633	320.6950	14.42675
50.97967	320.7280	14.42667
51.01300	320.7612	14.42666
51.04633	320.7950	14.42662
51.07967	320.8267	14.42654
51.11300	320.8608	14.42644
51.14633	320.8936	14.42638
51.17967	320.9271	14.42627
51.21300	320.9606	14.42618
51.24633	320.9940	14.42612
51.27967	321.0264	14.42599
51.31300	321.0596	14.42589
51.34633	321.0925	14.42581
51.37966	321.1260	14.42572
51.41300	321.1608	14.42572
51.44617	321.1948	14.42561
51.47950	321.2288	14.42558
51.51283	321.2614	14.42561
51.54617	321.2934	14.42549
51.57950	321.3260	14.42549
51.61284	321.3585	14.42548
51.64617	321.3910	14.42536
51.67950	321.4242	14.42532
51.71284	321.4568	14.42524
51.74633	321.4920	14.42521
51.77967	321.5244	14.42524
51.81300	321.5576	14.42512
51.84633	321.5910	14.42509
51.87966	321.6240	14.42498
51.91300	321.6580	14.42494
51.94634	321.6918	14.42485
51.97967	321.7244	14.42471
52.01300	321.7572	14.42457
52.04633	321.7904	14.42450
52.07966	321.8237	14.42452
52.11300	321.8573	14.42440
52.14633	321.8916	14.42431
52.17967	321.9250	14.42438
52.21300	321.9598	14.42423
52.24633	321.9922	14.42414
52.27967	322.0269	14.42410
52.31300	322.0593	14.42411
52.34633	322.0920	14.42403
52.38050	322.1260	14.42397
52.41467	322.1611	14.42398
52.44800	322.1944	14.42388
52.48134	322.2272	14.42378
52.51467	322.2605	14.42372
52.54883	322.2940	14.42362
52.58300	322.3274	14.42354
52.61633	322.3608	14.42348
52.64966	322.3942	14.42344
52.68300	322.4267	14.42332
52.71800	322.4612	14.42327
52.75300	322.4964	14.42319
52.78633	322.5293	14.42316
52.81967	322.5632	14.42302
52.85300	322.5970	14.42296
52.88716	322.6303	14.42294
52.92133	322.6624	14.42284
52.95434	322.6966	14.42282
52.98766	322.7310	14.42280
53.02100	322.7646	14.42274
53.05518	322.7985	14.42269
53.08933	322.8326	14.42262
53.12266	322.8669	14.42250
53.15600	322.9000	14.42245
53.18934	322.9341	14.42242
53.22350	322.9678	14.42237
53.25766	323.0029	14.42234
53.29100	323.0371	14.42226
53.32434	323.0692	14.42223
53.35766	323.1031	14.42216
53.39100	323.1372	14.42209
53.42432	323.1715	14.42210
53.45766	323.2059	14.42205
53.49133	323.2400	14.42201
53.52466	323.2726	14.42192
53.55800	323.3062	14.42189
53.59133	323.3398	14.42185
53.62467	323.3722	14.42179
53.65800	323.4046	14.42161
53.69133	323.4380	14.42148
53.72450	323.4717	14.42151
53.75783	323.5050	14.42145
53.79117	323.5396	14.42132
53.82450	323.5724	14.42124
53.85784	323.6059	14.42113
53.89117	323.6375	14.42100
53.92450	323.6721	14.42095
53.95783	323.7041	14.42101
53.99116	323.7371	14.42092
54.02450	323.7694	14.42084
54.05784	323.8043	14.42070
54.09117	323.8375	14.42084
54.12450	323.8707	14.42075
54.15783	323.9035	14.42064
54.19117	323.9390	14.42063
54.22450	323.9706	14.42062
54.25783	324.0042	14.42052
54.29117	324.0379	14.42046
54.32450	324.0716	14.42036
54.35784	324.1054	14.42030
54.39117	324.1396	14.42028
54.42450	324.1716	14.42018
54.45783	324.2046	14.42009
54.49116	324.2381	14.42004
54.52450	324.2718	14.41992
54.55784	324.3052	14.41985
54.59117	324.3397	14.41985
54.62450	324.3734	14.41981
54.65783	324.4052	14.41985
54.69117	324.4386	14.41981
54.72450	324.4717	14.41974
54.75783	324.5044	14.41972
54.79117	324.5380	14.41968
54.82450	324.5706	14.41962
54.85784	324.6040	14.41951
54.89117	324.6376	14.41946
54.92450	324.6719	14.41943
54.95783	324.7044	14.41934
54.99116	324.7365	14.41922
55.02450	324.7714	14.41911
55.05784	324.8044	14.41909
55.09117	324.8369	14.41906
55.12450	324.8694	14.41897
55.15783	324.9031	14.41889
55.19117	324.9346	14.41878
55.22466	324.9686	14.41868
55.25800	325.0027	14.41874
55.29133	325.0366	14.41872
55.32466	325.0700	14.41864
55.35766	325.1045	14.41856
55.39100	325.1360	14.41851
55.42450	325.1703	14.41849
55.45783	325.2031	14.41845
55.49116	325.2364	14.41838
55.52450	325.2690	14.41831
55.55784	325.3008	14.41824
55.59117	325.3340	14.41812
55.62450	325.3670	14.41798
55.65783	325.4002	14.41786
55.69117	325.4326	14.41773
55.72450	325.4694	14.41772
55.75783	325.5004	14.41779
55.79117	325.5341	14.41764
55.82450	325.5680	14.41755
55.85784	325.6010	14.41752
55.89117	325.6355	14.41755
55.92450	325.6692	14.41758
55.95783	325.7016	14.41741
55.99116	325.7349	14.41727
56.02450	325.7680	14.41718
56.05800	325.8020	14.41715
56.09300	325.8396	14.41715
56.12800	325.8736	14.41704
56.16133	325.9077	14.41698
56.19467	325.9404	14.41691
56.22800	325.9748	14.41688
56.26216	326.0084	14.41675
56.29600	326.0432	14.41666
56.32934	326.0772	14.41663
56.36266	326.1099	14.41660
56.39617	326.1434	14.41664
56.42950	326.1777	14.41665
56.46284	326.2121	14.41661
56.49617	326.2465	14.41644
56.52950	326.2799	14.41628
56.56283	326.3120	14.41624
56.59617	326.3459	14.41625
56.62950	326.3790	14.41632
56.66284	326.4111	14.41611
56.69617	326.4441	14.41604
56.72950	326.4794	14.41600
56.76300	326.5112	14.41610
56.79633	326.5436	14.41589
56.82966	326.5753	14.41570
56.86300	326.6080	14.41554
56.89633	326.6419	14.41554
56.92967	326.6757	14.41554
56.96300	326.7094	14.41552
56.99633	326.7435	14.41544
57.02934	326.7776	14.41545
57.06268	326.8100	14.41550
57.09617	326.8441	14.41545
57.12950	326.8761	14.41529
57.16284	326.9096	14.41517
57.19617	326.9428	14.41522
57.22950	326.9759	14.41521
57.26283	327.0086	14.41511
57.29617	327.0426	14.41507
57.32950	327.0763	14.41514
57.36284	327.1091	14.41517
57.39617	327.1432	14.41514
57.42950	327.1770	14.41511
57.46284	327.2094	14.41484
57.49617	327.2440	14.41473
57.52967	327.2777	14.41470
57.56300	327.3116	14.41466
57.59633	327.3440	14.41464
57.62966	327.3778	14.41456
57.66300	327.4100	14.41451
57.69634	327.4432	14.41441
57.72967	327.4765	14.41439
57.76266	327.5084	14.41431
57.79600	327.5430	14.41416
57.82950	327.5750	14.41416
57.86284	327.6081	14.41401
57.89617	327.6419	14.41396
57.92950	327.6754	14.41392
57.96284	327.7100	14.41387
57.99617	327.7422	14.41384
58.02950	327.7750	14.41373
58.06283	327.8098	14.41361
58.09617	327.8418	14.41356
58.12950	327.8750	14.41351
58.16284	327.9090	14.41345
58.19617	327.9408	14.41336
58.22950	327.9748	14.41329
58.26283	328.0096	14.41339
58.29633	328.0420	14.41331
58.32966	328.0761	14.41315
58.36300	328.1076	14.41297
58.39633	328.1414	14.41303
58.42967	328.1748	14.41301
58.46300	328.2113	14.41298
58.49600	328.2424	14.41316
58.52934	328.2740	14.41288
58.56268	328.3083	14.41271
58.59600	328.3415	14.41269
58.62950	328.3750	14.41254
58.66284	328.4093	14.41244
58.69617	328.4410	14.41234
58.72950	328.4749	14.41224
58.76283	328.5091	14.41218
58.79617	328.5428	14.41225
58.82950	328.5752	14.41233
58.86284	328.6081	14.41216
58.89617	328.6436	14.41218
58.92950	328.6756	14.41219
58.96284	328.7053	14.41189
58.99617	328.7407	14.41178
59.02950	328.7757	14.41178
59.06283	328.8088	14.41182
59.09617	328.8416	14.41176
59.13033	328.8754	14.41166
59.16450	328.9109	14.41161
59.19783	328.9428	14.41161
59.23116	328.9744	14.41147
59.26450	329.0078	14.41135
59.29868	329.0441	14.41130
59.33300	329.0795	14.41142
59.36633	329.1107	14.41125
59.39966	329.1454	14.41115
59.43300	329.1788	14.41116
59.46800	329.2130	14.41113
59.50300	329.2478	14.41110
59.53633	329.2815	14.41098
59.56933	329.3139	14.41097
59.60266	329.3490	14.41079
59.63700	329.3832	14.41080
59.67117	329.4178	14.41066
59.70450	329.4537	14.41074
59.73784	329.4844	14.41080
59.77117	329.5186	14.41059
59.80533	329.5520	14.41051
59.83950	329.5858	14.41044
59.87283	329.6180	14.41031
59.90616	329.6525	14.41026
59.93950	329.6859	14.41022
59.97383	329.7190	14.41023
60.00800	329.7528	14.41019
60.04133	329.7865	14.41016
60.07466	329.8206	14.41013
60.10800	329.8524	14.41012
60.14300	329.8883	14.40987
60.17800	329.9222	14.40977
60.21133	329.9555	14.40967
60.24467	329.9883	14.40965
60.27766	330.0221	14.40960
60.31184	330.0564	14.40948
60.34600	330.0894	14.40937
60.37934	330.1243	14.40934
60.41266	330.1579	14.40936
60.44617	330.1908	14.40924
60.48033	330.2252	14.40925
60.51450	330.2594	14.40923
60.54783	330.2929	14.40910
60.58116	330.3267	14.40902
60.61450	330.3607	14.40899
60.64868	330.3935	14.40894
60.68284	330.4280	14.40877
60.71617	330.4605	14.40864
60.74950	330.4953	14.40857
60.78283	330.5290	14.40859
60.81783	330.5630	14.40854
60.85283	330.5997	14.40844
60.88633	330.6320	14.40845
60.91967	330.6652	14.40834
60.95300	330.6968	14.40814
60.98717	330.7332	14.40809
61.02100	330.7672	14.40812
61.05434	330.8015	14.40820
61.08766	330.8335	14.40820
61.12117	330.8673	14.40812
61.15533	330.9004	14.40795
61.18950	330.9341	14.40787
61.22283	330.9669	14.40782
61.25618	331.0012	14.40775
61.28950	331.0351	14.40772
61.32366	331.0688	14.40767
61.35784	331.1030	14.40759
61.39117	331.1363	14.40764
61.42450	331.1698	14.40757
61.45783	331.2044	14.40742
61.49300	331.2392	14.40734
61.52800	331.2726	14.40715
61.56133	331.3078	14.40696
61.59467	331.3391	14.40690
61.62800	331.3740	14.40685
61.66184	331.4094	14.40683
61.69600	331.4428	14.40684
61.72950	331.4740	14.40671
61.76283	331.5080	14.40662
61.79617	331.5413	14.40652
61.83033	331.5763	14.40634
61.86450	331.6113	14.40639
61.89783	331.6438	14.40642
61.93116	331.6784	14.40631
61.96450	331.7108	14.40621
61.99866	331.7447	14.40614
62.03300	331.7796	14.40603
62.06633	331.8115	14.40601
62.09966	331.8445	14.40593
62.13300	331.8780	14.40589
62.16768	331.9126	14.40579
62.20266	331.9478	14.40574
62.23618	331.9820	14.40569
62.26950	332.0160	14.40558
62.30283	332.0491	14.40546
62.33700	332.0840	14.40534
62.37117	332.1186	14.40530
62.40450	332.1515	14.40528
62.43783	332.1848	14.40516
62.47117	332.2186	14.40510
62.50533	332.2525	14.40503
62.53967	332.2852	14.40499
62.57300	332.3206	14.40490
62.60634	332.3538	14.40496
62.63933	332.3861	14.40494
62.67350	332.4206	14.40484
62.70783	332.4550	14.40478
62.74116	332.4883	14.40473
62.77450	332.5208	14.40458
62.80784	332.5537	14.40448
62.84283	332.5901	14.40437
62.87783	332.6238	14.40433
62.91118	332.6572	14.40418
62.94450	332.6910	14.40422
62.97800	332.7210	14.40394
63.01216	332.7602	14.40412
63.04633	332.7938	14.40430
63.07966	332.8247	14.40404
63.11266	332.8602	14.40371
63.14600	332.8928	14.40383
63.17950	332.9250	14.40376
63.21284	332.9582	14.40366
63.24617	332.9926	14.40361
63.27950	333.0269	14.40354
63.31283	333.0590	14.40347
63.34617	333.0917	14.40332
63.37950	333.1248	14.40326
63.41284	333.1578	14.40324
63.44617	333.1913	14.40309
63.47967	333.2254	14.40304
63.51300	333.2588	14.40298
63.54633	333.2928	14.40295
63.57966	333.3260	14.40282
63.61266	333.3594	14.40268
63.64600	333.3929	14.40257
63.67950	333.4256	14.40252
63.71284	333.4582	14.40249
63.74617	333.4922	14.40252
63.77950	333.5264	14.40243
63.81283	333.5590	14.40234
63.84617	333.5914	14.40218
63.87950	333.6244	14.40199
63.91284	333.6578	14.40195
63.94617	333.6905	14.40187
63.97950	333.7246	14.40184
64.01283	333.7581	14.40180
64.04633	333.7918	14.40171
64.07966	333.8253	14.40170
64.11300	333.8588	14.40158
64.14633	333.8913	14.40150
64.17934	333.9258	14.40148
64.21268	333.9589	14.40150
64.24600	333.9925	14.40151
64.27950	334.0252	14.40144
64.31284	334.0581	14.40131
64.34617	334.0910	14.40122
64.37950	334.1252	14.40112
64.41284	334.1586	14.40105
64.44617	334.1898	14.40092
64.47950	334.2261	14.40077
64.51283	334.2587	14.40084
64.54633	334.2929	14.40082
64.57966	334.3263	14.40084
64.61300	334.3596	14.40071
64.64600	334.3932	14.40067
64.67934	334.4248	14.40056
64.71283	334.4593	14.40032
64.74617	334.4957	14.40034
64.77950	334.5250	14.40037
64.81284	334.5574	14.40001
64.84617	334.5924	14.39988
64.87950	334.6248	14.39992
64.91284	334.6575	14.39984
64.94617	334.6913	14.39974
64.97967	334.7256	14.39971
65.01300	334.7594	14.39972
65.04633	334.7938	14.39965
65.07966	334.8263	14.39960
65.11266	334.8613	14.39956
65.14600	334.8934	14.39950
65.17950	334.9262	14.39933
65.21283	334.9607	14.39931
65.24617	334.9953	14.39929
65.27950	335.0266	14.39912
65.31284	335.0602	14.39893
65.34617	335.0950	14.39891
65.37950	335.1279	14.39904
65.41284	335.1616	14.39909
65.44617	335.1954	14.39909
65.47950	335.2301	14.39913
65.51283	335.2630	14.39889
65.54616	335.2968	14.39867
65.57950	335.3295	14.39854
65.61282	335.3622	14.39850
65.64634	335.3934	14.39840
65.67966	335.4262	14.39818
65.71300	335.4593	14.39793
65.74634	335.4949	14.39796
65.77966	335.5267	14.39797
65.81268	335.5584	14.39786
65.84600	335.5916	14.39780
65.88032	335.6258	14.39771
65.91450	335.6601	14.39763
65.94782	335.6928	14.39754
65.98116	335.7264	14.39751
66.01450	335.7600	14.39745
66.04868	335.7942	14.39738
66.08282	335.8276	14.39730
66.11616	335.8622	14.39725
66.14950	335.8958	14.39719
66.18282	335.9272	14.39711
66.21782	335.9624	14.39702
66.25282	335.9965	14.39689
66.28632	336.0300	14.39683
66.31968	336.0639	14.39674
66.35300	336.0966	14.39671
66.38718	336.1304	14.39661
66.42100	336.1656	14.39648
66.45434	336.1977	14.39633
66.48782	336.2316	14.39621
66.52116	336.2669	14.39616
66.55532	336.3008	14.39622
66.58950	336.3334	14.39613
66.62282	336.3660	14.39593
66.65616	336.4006	14.39583
66.68950	336.4348	14.39584
66.72366	336.4680	14.39579
66.75800	336.5016	14.39562
66.79134	336.5341	14.39552
66.82468	336.5682	14.39535
66.85800	336.6012	14.39530
66.89300	336.6365	14.39531
66.92766	336.6721	14.39528
66.96100	336.7054	14.39516
66.99450	336.7378	14.39495
67.02782	336.7726	14.39488
67.06200	336.8072	14.39493
67.09616	336.8414	14.39482
67.12950	336.8781	14.39473
67.16284	336.9115	14.39476
67.19616	336.9424	14.39470
67.23032	336.9770	14.39461
67.26450	337.0116	14.39455
67.29784	337.0460	14.39447
67.33118	337.0799	14.39439
67.36450	337.1128	14.39433
67.39868	337.1462	14.39428
67.43300	337.1816	14.39422
67.46634	337.2156	14.39416
67.49966	337.2480	14.39407
67.53300	337.2811	14.39399
67.56800	337.3169	14.39392
67.60266	337.3516	14.39386
67.63600	337.3855	14.39379
67.66950	337.4192	14.39364
67.70282	337.4511	14.39353
67.73700	337.4849	14.39347
67.77116	337.5200	14.39333
67.80450	337.5522	14.39306
67.83782	337.5865	14.39282
67.87116	337.6188	14.39282
67.90532	337.6528	14.39270
67.93950	337.6858	14.39261
67.97282	337.7194	14.39254
68.00634	337.7525	14.39238
68.03968	337.7866	14.39231
68.07382	337.8208	14.39228
68.10766	337.8550	14.39214
68.14100	337.8882	14.39207
68.17450	337.9213	14.39205
68.20782	337.9544	14.39216
68.24200	337.9876	14.39226
68.27618	338.0224	14.39226
68.30950	338.0564	14.39219
68.34282	338.0923	14.39214
68.37616	338.1256	14.39195
68.41132	338.1606	14.39171
68.44634	338.1954	14.39155
68.47968	338.2288	14.39146
68.51266	338.2591	14.39156
68.54616	338.2919	14.39155
68.58032	338.3266	14.39157
68.61450	338.3608	14.39151
68.64782	338.3938	14.39125
68.68116	338.4271	14.39083
68.71450	338.4620	14.39056
68.74866	338.4949	14.39038
68.78300	338.5280	14.39027
68.81634	338.5597	14.39019
68.84968	338.5930	14.39000
68.88300	338.6266	14.38995
68.91766	338.6603	14.38996
68.95282	338.6953	14.38981
68.98618	338.7290	14.38964
69.01950	338.7624	14.38948
69.05282	338.7960	14.38940
69.08700	338.8294	14.38939
69.12116	338.8637	14.38932
69.15450	338.8975	14.38924
69.18784	338.9324	14.38910
69.22134	338.9658	14.38906
69.25550	339.0000	14.38897
69.28968	339.0336	14.38889
69.32266	339.0668	14.38872
69.35616	339.1001	14.38862
69.38950	339.1326	14.38853
69.42284	339.1660	14.38841
69.45618	339.1984	14.38830
69.48950	339.2319	14.38827
69.52282	339.2653	14.38830
69.55616	339.2983	14.38820
69.58968	339.3331	14.38811
69.62300	339.3662	14.38805
69.65600	339.3996	14.38792
69.68932	339.4322	14.38789
69.72282	339.4654	14.38792
69.75616	339.4982	14.38789
69.78950	339.5300	14.38760
69.82282	339.5663	14.38737
69.85616	339.5988	14.38745
69.88966	339.6326	14.38741
69.92300	339.6682	14.38741
69.95634	339.7006	14.38725
69.98932	339.7322	14.38683
70.02282	339.7682	14.38671
70.05616	339.8037	14.38673
70.08950	339.8362	14.38676
70.12282	339.8692	14.38651
70.15616	339.9019	14.38638
70.18950	339.9343	14.38626
70.22282	339.9671	14.38599
70.25616	340.0015	14.38586
70.28950	340.0344	14.38574
70.32300	340.0689	14.38564
70.35632	340.1032	14.38556
70.38966	340.1350	14.38568
70.42300	340.1700	14.38569
70.45634	340.2035	14.38561
70.48968	340.2373	14.38543
70.52300	340.2705	14.38528
70.55634	340.3045	14.38518
70.58968	340.3362	14.38515
70.62266	340.3709	14.38499
70.65600	340.4037	14.38490
70.68932	340.4361	14.38473
70.72282	340.4684	14.38452
70.75616	340.5021	14.38444
70.78950	340.5352	14.38438
70.82282	340.5690	14.38428
70.85616	340.6030	14.38418
70.88950	340.6361	14.38411
70.92284	340.6694	14.38411
70.95618	340.7020	14.38400
70.98950	340.7356	14.38389
71.02282	340.7699	14.38384
71.05616	340.8026	14.38382
71.08950	340.8368	14.38373
71.12282	340.8679	14.38351
71.15616	340.9027	14.38342
71.18950	340.9360	14.38335
71.22282	340.9720	14.38333
71.25634	341.0028	14.38328
71.28968	341.0361	14.38307
71.32300	341.0697	14.38313
71.35632	341.1032	14.38318
71.38966	341.1375	14.38308
71.42300	341.1717	14.38284
71.45634	341.2053	14.38268
71.48968	341.2386	14.38259
71.52300	341.2720	14.38251
71.55600	341.3057	14.38243
71.58932	341.3384	14.38228
71.62266	341.3715	14.38217
71.65616	341.4048	14.38202
71.68950	341.4386	14.38187
71.72282	341.4708	14.38180
71.75616	341.5046	14.38166
71.78950	341.5348	14.38147
71.82282	341.5700	14.38141
71.85616	341.6035	14.38136
71.88950	341.6374	14.38134
71.92284	341.6703	14.38139
71.95618	341.7030	14.38125
71.98950	341.7364	14.38112
72.02282	341.7688	14.38102
72.05616	341.8044	14.38106
72.08968	341.8334	14.38091
72.12384	341.8691	14.38076
72.15800	341.9038	14.38072
72.19134	341.9372	14.38066
72.22468	341.9706	14.38060
72.25800	342.0033	14.38051
72.29300	342.0408	14.38030
72.32800	342.0747	14.38024
72.36134	342.1062	14.37998
72.39468	342.1406	14.37983
72.42800	342.1756	14.37974
72.46216	342.2084	14.37969
72.49600	342.2430	14.37961
72.52934	342.2761	14.37947
72.56268	342.3100	14.37953
72.59616	342.3430	14.37942
72.62950	342.3776	14.37931
72.66284	342.4116	14.37926
72.69616	342.4444	14.37896
72.72950	342.4765	14.37882
72.76282	342.5098	14.37875
72.79616	342.5432	14.37868
72.82950	342.5769	14.37841
72.86282	342.6107	14.37836
72.89616	342.6422	14.37840
72.92950	342.6764	14.37822
72.96282	342.7110	14.37802
72.99616	342.7437	14.37793
73.02966	342.7778	14.37792
73.06300	342.8116	14.37786
73.09634	342.8437	14.37770
73.12968	342.8774	14.37756
73.16300	342.9105	14.37738
73.19634	342.9436	14.37731
73.22968	342.9775	14.37718
73.26300	343.0094	14.37665
73.29600	343.0432	14.37223
73.32934	343.0758	14.36842
73.36266	343.1088	14.36678
73.39600	343.1426	14.36621
73.42934	343.1758	14.36594
73.46268	343.2098	14.36577
73.49616	343.2433	14.36566
73.52950	343.2764	14.36558
73.56284	343.3094	14.36550
73.59616	343.3440	14.36545
73.62950	343.3757	14.36543
73.66284	343.4100	14.36532
73.69616	343.4436	14.36530
73.72950	343.4762	14.36518
73.76282	343.5085	14.36497
73.79616	343.5428	14.36494
73.82950	343.5750	14.36489
73.86282	343.6105	14.36479
73.89616	343.6431	14.36486
73.92950	343.6736	14.36466
73.96282	343.7068	14.36442
73.99616	343.7404	14.36439
74.02950	343.7742	14.36436
74.06284	343.8072	14.36424
74.09616	343.8410	14.36410
74.12950	343.8740	14.36397
74.16284	343.9063	14.36383
74.19616	343.9395	14.36377
74.22950	343.9724	14.36365
74.26282	344.0068	14.36357
74.29616	344.0402	14.36350
74.32950	344.0729	14.36343
74.36282	344.1066	14.36335
74.39616	344.1409	14.36333
74.42950	344.1748	14.36321
74.46282	344.2082	14.36304
74.49616	344.2412	14.36288
74.52950	344.2742	14.36277
74.56284	344.3090	14.36278
74.59616	344.3416	14.36278
74.62950	344.3740	14.36260
74.66284	344.4091	14.36258
74.69616	344.4402	14.36257
74.72950	344.4761	14.36255
74.76282	344.5096	14.36248
74.79616	344.5413	14.36206
74.82950	344.5756	14.36189
74.86282	344.6090	14.36186
74.89616	344.6415	14.36188
74.92950	344.6744	14.36172
74.96282	344.7088	14.36158
74.99616	344.7418	14.36151
75.02950	344.7744	14.36144
75.06284	344.8074	14.36135
75.09616	344.8412	14.36130
75.12950	344.8742	14.36123
75.16300	344.9082	14.36105
75.19634	344.9419	14.36094
75.22968	344.9753	14.36086
75.26300	345.0083	14.36066
75.29634	345.0420	14.36061
75.33050	345.0766	14.36100
75.36468	345.1115	14.36126
75.39800	345.1453	14.36148
75.43134	345.1778	14.36147
75.46468	345.2125	14.36135
75.49884	345.2475	14.36127
75.53300	345.2824	14.36120
75.56634	345.3155	14.36111
75.59968	345.3478	14.36096
75.63284	345.3815	14.36080
75.66782	345.4167	14.36063
75.70282	345.4526	14.36044
75.73618	345.4852	14.36040
75.76950	345.5172	14.36026
75.80282	345.5510	14.35996
75.83700	345.5877	14.35986
75.87116	345.6208	14.35989
75.90450	345.6516	14.35968
75.93784	345.6882	14.35947
75.97116	345.7192	14.35939
76.00532	345.7524	14.35917
76.03950	345.7865	14.35903
76.07282	345.8205	14.35898
76.10616	345.8552	14.35894
76.13950	345.8876	14.35889
76.17368	345.9224	14.35884
76.20782	345.9565	14.35875
76.24116	345.9908	14.35855
76.27450	346.0244	14.35833
76.30782	346.0582	14.35819
76.34282	346.0922	14.35745
76.37782	346.1272	14.35440
76.41116	346.1620	14.35273
76.44450	346.1945	14.35210
76.47784	346.2268	14.35183
76.51200	346.2612	14.35164
76.54616	346.2957	14.35154
76.57950	346.3294	14.35145
76.61282	346.3630	14.35132
76.64616	346.3960	14.35121
76.68032	346.4284	14.35106
76.71450	346.4617	14.35094
76.74782	346.4948	14.35087
76.78116	346.5287	14.35079
76.81450	346.5618	14.35068
76.84866	346.5957	14.35060
76.88284	346.6290	14.35054
76.91616	346.6601	14.35042
76.94950	346.6950	14.35017
76.98284	346.7282	14.35020
77.01782	346.7633	14.35012
77.05282	346.7966	14.35010
77.08618	346.8297	14.35005
77.11950	346.8637	14.34992
77.15282	346.8975	14.34975
77.18700	346.9318	14.34965
77.22116	346.9662	14.34956
77.25450	347.0000	14.34945
77.28784	347.0331	14.34928
77.32116	347.0660	14.34919
77.35532	347.1000	14.34902
77.38950	347.1334	14.34892
77.42284	347.1669	14.34877
77.45600	347.2012	14.34866
77.48932	347.2350	14.34856
77.52350	347.2703	14.34850
77.55766	347.3041	14.34842
77.59116	347.3372	14.34844
77.62450	347.3702	14.34832
77.65784	347.4030	14.34818
77.69282	347.4380	14.34806
77.72784	347.4736	14.34803
77.76118	347.5062	14.34792
77.79450	347.5394	14.34776
77.82782	347.5740	14.34756
77.86200	347.6078	14.34738
77.89600	347.6430	14.34726
77.92934	347.6768	14.34725
77.96268	347.7102	14.34722
77.99600	347.7436	14.34716
78.03016	347.7773	14.34709
78.06432	347.8125	14.34694
78.09800	347.8432	14.34655
78.13134	347.8804	14.34651
78.16468	347.9134	14.34659
78.19882	347.9495	14.34640
78.23300	347.9856	14.34672
78.26634	348.0152	14.34646
78.29950	348.0474	14.34632
78.33282	348.0821	14.34612
78.36782	348.1169	14.34620
78.40282	348.1521	14.34626
78.43616	348.1860	14.34613
78.46950	348.2198	14.34598
78.50282	348.2549	14.34594
78.53700	348.2876	14.34596
78.57116	348.3232	14.34602
78.60450	348.3547	14.34598
78.63782	348.3895	14.34573
78.67116	348.4224	14.34556
78.70532	348.4556	14.34540
78.73950	348.4898	14.34529
78.77282	348.5244	14.34520
78.80616	348.5566	14.34517
78.83950	348.5903	14.34506
78.87366	348.6232	14.34496
78.90784	348.6567	14.34486
78.94116	348.6914	14.34462
78.97450	348.7242	14.34458
79.00784	348.7570	14.34453
79.04200	348.7899	14.34442
79.07616	348.8248	14.34436
79.10950	348.8581	14.34428
79.14282	348.8916	14.34419
79.17618	348.9231	14.34400
79.21118	348.9590	14.34385
79.24616	348.9941	14.34379
79.27950	349.0274	14.34365
79.31268	349.0598	14.34357
79.34600	349.0932	14.34353
79.38016	349.1266	14.34349
79.41432	349.1606	14.34339
79.44766	349.1945	14.34327
79.48100	349.2267	14.34314
79.51434	349.2604	14.34300
79.54850	349.2940	14.34294
79.58300	349.3284	14.34280
79.61634	349.3628	14.34265
79.64966	349.3958	14.34255
79.68300	349.4280	14.34239
79.71800	349.4648	14.34220
79.75300	349.4990	14.34210
79.78632	349.5318	14.34199
79.81950	349.5645	14.34200
79.85284	349.5980	14.34189
79.88700	349.6328	14.34176
79.92116	349.6660	14.34169
79.95450	349.6995	14.34152
79.98782	349.7328	14.34136
80.02116	349.7661	14.34124
80.05532	349.8000	14.34110
80.08950	349.8316	14.34076
80.12282	349.8692	14.34087
80.15616	349.9020	14.34103
80.18950	349.9346	14.34085
80.22366	349.9712	14.34068
80.25784	350.0021	14.34090
80.29116	350.0322	14.34036
80.32450	350.0655	14.34017
80.35784	350.1010	14.34002
80.39282	350.1376	14.34009
80.42782	350.1707	14.34000
80.46118	350.2046	14.33977
80.49432	350.2382	14.33969
80.52766	350.2715	14.33956
80.56184	350.3050	14.33948
80.59600	350.3395	14.33934
80.62934	350.3748	14.33920
80.66266	350.4090	14.33914
80.69634	350.4429	14.33911
80.73050	350.4762	14.33908
80.76466	350.5101	14.33893
80.79800	350.5430	14.33881
80.83134	350.5775	14.33861
80.86468	350.6108	14.33851
80.89884	350.6450	14.33840
80.93300	350.6783	14.33831
80.96634	350.7124	14.33814
80.99966	350.7458	14.33806
81.03300	350.7788	14.33796
81.06800	350.8124	14.33783
81.10300	350.8481	14.33766
81.13632	350.8830	14.33757
81.16968	350.9165	14.33756
81.20300	350.9487	14.33736
81.23718	350.9838	14.33730
81.27134	351.0181	14.33722
81.30466	351.0509	14.33709
81.33800	351.0843	14.33699
81.37134	351.1165	14.33691
81.40550	351.1509	14.33682
81.43968	351.1854	14.33671
81.47300	351.2188	14.33663
81.50634	351.2522	14.33656
81.53968	351.2856	14.33641
81.57382	351.3197	14.33629
81.60800	351.3535	14.33618
81.64134	351.3870	14.33608
81.67468	351.4199	14.33596
81.70800	351.4529	14.33589
81.74300	351.4886	14.33583
81.77800	351.5231	14.33580
81.81134	351.5548	14.33557
81.84468	351.5888	14.33536
81.87800	351.6235	14.33536
81.91218	351.6578	14.33530
81.94634	351.6917	14.33519
81.97968	351.7247	14.33499
82.01300	351.7582	14.33484
82.04632	351.7930	14.33484
82.08050	351.8274	14.33478
82.11468	351.8608	14.33457
82.14800	351.8951	14.33447
82.18134	351.9288	14.33438
82.21468	351.9631	14.33428
82.24884	351.9969	14.33423
82.28300	352.0305	14.33403
82.31618	352.0644	14.33392
82.34950	352.0973	14.33388
82.38282	352.1296	14.33373
82.41782	352.1618	14.33344
82.45282	352.2000	14.33333
82.48618	352.2325	14.33331
82.51950	352.2658	14.33317
82.55282	352.2987	14.33309
82.58700	352.3307	14.33304
82.62118	352.3692	14.33294
82.65450	352.4020	14.33297
82.68782	352.4348	14.33288
82.72118	352.4684	14.33274
82.75532	352.5018	14.33265
82.78950	352.5360	14.33248
82.82282	352.5684	14.33237
82.85616	352.6000	14.33224
82.88950	352.6325	14.33209
82.92368	352.6659	14.33198
82.95782	352.7000	14.33193
82.99116	352.7334	14.33181
83.02450	352.7668	14.33164
83.05782	352.8000	14.33156
83.09282	352.8356	14.33142
83.12782	352.8712	14.33125
83.16116	352.9035	14.33099
83.19450	352.9375	14.33094
83.22784	352.9729	14.33090
83.26200	353.0088	14.33090
83.29618	353.0402	14.33081
83.32950	353.0750	14.33057
83.36282	353.1090	14.33047
83.39618	353.1430	14.33033
83.43032	353.1766	14.33025
83.46450	353.2100	14.33009
83.49782	353.2432	14.32995
83.53116	353.2767	14.32988
83.56450	353.3090	14.32970
83.59866	353.3426	14.32946
83.63282	353.3782	14.32918
83.66618	353.4133	14.32914
83.69950	353.4467	14.32911
83.73282	353.4788	14.32899
83.76782	353.5136	14.32874
83.80282	353.5524	14.32877
83.83618	353.5848	14.32875
83.86950	353.6150	14.32849
83.90282	353.6490	14.32816
83.93700	353.6844	14.32806
83.97118	353.7202	14.32801
84.00450	353.7537	14.32800
84.03782	353.7860	14.32793
84.07118	353.8183	14.32780
84.10532	353.8535	14.32762
84.13950	353.8863	14.32755
84.17284	353.9202	14.32735
84.20618	353.9544	14.32728
84.23950	353.9871	14.32719
84.27368	354.0244	14.32708
84.30782	354.0582	14.32697
84.34116	354.0940	14.32690
84.37450	354.1260	14.32701
84.40782	354.1580	14.32679
84.44282	354.1906	14.32652
84.47784	354.2274	14.32640
84.51118	354.2590	14.32625
84.54450	354.2939	14.32612
84.57782	354.3290	14.32606
84.61200	354.3620	14.32592
84.64618	354.3946	14.32578
84.67950	354.4262	14.32558
84.71282	354.4591	14.32528
84.74618	354.4942	14.32531
84.77950	354.5270	14.32526
84.81282	354.5624	14.32520
84.84618	354.5944	14.32517
84.87950	354.6266	14.32498
84.91282	354.6593	14.32485
84.94618	354.6914	14.32476
84.97950	354.7268	14.32463
85.01266	354.7588	14.32464
85.04600	354.7903	14.32446
85.07934	354.8233	14.32434
85.11266	354.8574	14.32420
85.14601	354.8911	14.32407
85.17934	354.9238	14.32399
85.21300	354.9576	14.32399
85.24632	354.9910	14.32394
85.27968	355.0242	14.32379
85.31300	355.0583	14.32356
85.34634	355.0913	14.32343
85.37968	355.1239	14.32327
85.41300	355.1564	14.32304
85.44634	355.1906	14.32294
85.47968	355.2250	14.32288
85.51300	355.2586	14.32286
85.54632	355.2900	14.32272
85.57968	355.3228	14.32253
85.61266	355.3563	14.32238
85.64601	355.3903	14.32223
85.67934	355.4248	14.32212
85.71268	355.4567	14.32188
85.74618	355.4902	14.32178
85.77950	355.5233	14.32171
85.81282	355.5566	14.32168
85.84618	355.5912	14.32163
85.87950	355.6258	14.32146
85.91282	355.6598	14.32124
85.94618	355.6924	14.32111
85.97950	355.7257	14.32088
86.01282	355.7578	14.32067
86.04618	355.7908	14.32056
86.07950	355.8252	14.32053
86.11282	355.8589	14.32047
86.14618	355.8920	14.32033
86.17950	355.9250	14.32017
86.21282	355.9570	14.32004
86.24618	355.9900	14.31981
86.27950	356.0229	14.31972
86.31282	356.0574	14.31952
86.34618	356.0930	14.31948
86.37950	356.1265	14.31945
86.41282	356.1589	14.31941
86.44618	356.1912	14.31920
86.47950	356.2240	14.31906
86.51282	356.2578	14.31896
86.54632	356.2908	14.31876
86.57968	356.3252	14.31856
86.61300	356.3570	14.31840
86.64632	356.3909	14.31832
86.67968	356.4241	14.31834
86.71300	356.4580	14.31826
86.74632	356.4925	14.31810
86.77968	356.5252	14.31790
86.81300	356.5581	14.31767
86.84634	356.5906	14.31752
86.87968	356.6248	14.31749
86.91300	356.6575	14.31744
86.94600	356.6910	14.31727
86.97934	356.7234	14.31712
87.01266	356.7580	14.31690
87.04600	356.7912	14.31677
87.07950	356.8248	14.31662
87.11282	356.8566	14.31654
87.14618	356.8885	14.31627
87.17950	356.9238	14.31604
87.21282	356.9561	14.31603
87.24618	356.9887	14.31588
87.27950	357.0222	14.31569
87.31282	357.0556	14.31558
87.34618	357.0896	14.31546
87.37950	357.1231	14.31542
87.41282	357.1572	14.31534
87.44618	357.1888	14.31519
87.48032	357.2229	14.31496
87.51450	357.2591	14.31481
87.54784	357.2920	14.31470
87.58118	357.3246	14.31454
87.61450	357.3588	14.31433
87.64868	357.3922	14.31419
87.68282	357.4250	14.31402
87.71616	357.4594	14.31394
87.74950	357.4932	14.31392
87.78300	357.5263	14.31381
87.81800	357.5608	14.31360
87.85300	357.5955	14.31339
87.88632	357.6298	14.31332
87.91968	357.6638	14.31327
87.95301	357.6970	14.31310
87.98718	357.7315	14.31286
88.02132	357.7654	14.31258
88.05468	357.7991	14.31239
88.08800	357.8351	14.31238
88.12132	357.8688	14.31246
88.15516	357.9028	14.31233
88.18934	357.9375	14.31212
88.22266	357.9703	14.31190
88.25600	358.0042	14.31161
88.28934	358.0372	14.31143
88.32350	358.0714	14.31133
88.35766	358.1066	14.31122
88.39100	358.1397	14.31117
88.42450	358.1729	14.31108
88.45782	358.2060	14.31090
88.49282	358.2416	14.31073
88.52782	358.2758	14.31054
88.56116	358.3093	14.31038
88.59449	358.3425	14.31017
88.62782	358.3760	14.31007
88.66200	358.4105	14.30995
88.69618	358.4440	14.30976
88.72950	358.4774	14.30961
88.76282	358.5125	14.30952
88.79618	358.5438	14.30934
88.83032	358.5771	14.30904
88.86450	358.6109	14.30878
88.89782	358.6436	14.30868
88.93116	358.6770	14.30856
88.96450	358.7113	14.30852
88.99866	358.7432	14.30846
89.03282	358.7777	14.30822
89.06632	358.8105	14.30813
89.09968	358.8445	14.30798
89.13300	358.8780	14.30775
89.16800	358.9133	14.30762
89.20301	358.9484	14.30752
89.23634	358.9824	14.30745
89.26968	359.0155	14.30723
89.30301	359.0494	14.30698
89.33718	359.0838	14.30692
89.37132	359.1203	14.30694
89.40468	359.1529	14.30692
89.43800	359.1850	14.30654
89.47134	359.2192	14.30631
89.50550	359.2527	14.30616
89.53934	359.2870	14.30601
89.57266	359.3210	14.30597
89.60601	359.3522	14.30582
89.63934	359.3865	14.30555
89.67350	359.4210	14.30547
89.70766	359.4558	14.30515
89.74116	359.4903	14.30507
89.77432	359.5235	14.30487
89.80766	359.5570	14.30473
89.84266	359.5904	14.30454
89.87768	359.6248	14.30432
89.91101	359.6588	14.30418
89.94434	359.6930	14.30407
89.97766	359.7248	14.30391
90.01184	359.7595	14.30367
90.04600	359.7942	14.30354
90.07934	359.8268	14.30342
90.11266	359.8604	14.30326
90.14601	359.8933	14.30312
90.18016	359.9265	14.30295
90.21434	359.9613	14.30274
90.24766	359.9946	14.30260
90.28100	360.0281	14.30244
90.31434	360.0612	14.30225
90.34766	360.0940	14.30207
90.38100	360.1285	14.30196
90.41434	360.1612	14.30189
90.44766	360.1938	14.30177
90.48101	360.2297	14.30164
90.51434	360.2622	14.30152
90.54766	360.2951	14.30129
90.58118	360.3269	14.30110
90.61450	360.3594	14.30082
90.64782	360.3931	14.30073
90.68116	360.4268	14.30066
90.71450	360.4606	14.30056
90.74782	360.4940	14.30051
90.78116	360.5266	14.30034
90.81450	360.5600	14.30008
90.84782	360.5952	14.29986
90.88116	360.6274	14.29974
90.91449	360.6592	14.29942
90.94782	360.6940	14.29925
90.98116	360.7256	14.29912
91.01450	360.7581	14.29893
91.04784	360.7916	14.29874
91.08118	360.8252	14.29866
91.11450	360.8618	14.29865
91.14782	360.8936	14.29865
91.18116	360.9262	14.29840
91.21450	360.9585	14.29825
91.24782	360.9916	14.29798
91.28116	361.0265	14.29774
91.31450	361.0585	14.29758
91.34782	361.0914	14.29738
91.38116	361.1264	14.29721
91.41449	361.1609	14.29714
91.44782	361.1934	14.29695
91.48101	361.2259	14.29678
91.51434	361.2598	14.29660
91.54766	361.2922	14.29638
91.58100	361.3269	14.29622
91.61434	361.3589	14.29616
91.64766	361.3908	14.29584
91.68100	361.4244	14.29562
91.71434	361.4597	14.29554
91.74766	361.4941	14.29554
91.78100	361.5268	14.29532
91.81450	361.5608	14.29515
91.84782	361.5929	14.29493
91.88116	361.6254	14.29474
91.91449	361.6594	14.29458
91.94782	361.6928	14.29442
91.98116	361.7265	14.29428
92.01450	361.7592	14.29409
92.04784	361.7920	14.29379
92.08118	361.8261	14.29372
92.11450	361.8584	14.29349
92.14782	361.8924	14.29336
92.18116	361.9270	14.29334
92.21450	361.9582	14.29318
92.24782	361.9923	14.29296
92.28116	362.0278	14.29284
92.31450	362.0596	14.29274
92.34782	362.0922	14.29246
92.38116	362.1250	14.29211
92.41449	362.1587	14.29197
92.44782	362.1928	14.29179
92.48116	362.2259	14.29153
92.51450	362.2583	14.29126
92.54784	362.2932	14.29115
92.58118	362.3258	14.29105
92.61450	362.3594	14.29088
92.64782	362.3937	14.29070
92.68116	362.4268	14.29060
92.71450	362.4617	14.29040
92.74800	362.4950	14.29026
92.78134	362.5276	14.29012
92.81468	362.5588	14.28999
92.84800	362.5948	14.28955
92.88134	362.6309	14.28953
92.91468	362.6626	14.28950
92.94800	362.6970	14.28921
92.98116	362.7288	14.28893
93.01450	362.7624	14.28866
93.04868	362.7960	14.28851
93.08282	362.8307	14.28840
93.11616	362.8638	14.28824
93.14950	362.8974	14.28807
93.18282	362.9302	14.28788
93.21782	362.9650	14.28756
93.25282	363.0005	14.28730
93.28616	363.0332	14.28703
93.31949	363.0664	14.28682
93.35284	363.1010	14.28668
93.38700	363.1348	14.28659
93.42118	363.1688	14.28638
93.45450	363.2022	14.28615
93.48782	363.2356	14.28599
93.52118	363.2691	14.28586
93.55532	363.3040	14.28581
93.58950	363.3384	14.28562
93.62282	363.3716	14.28536
93.65616	363.4040	14.28523
93.68950	363.4373	14.28508
93.72282	363.4722	14.28491
93.75616	363.5062	14.28464
93.78949	363.5392	14.28444
93.82282	363.5717	14.28426
93.85616	363.6058	14.28405
93.88950	363.6385	14.28391
93.92284	363.6718	14.28371
93.95618	363.7060	14.28352
93.98950	363.7384	14.28333
94.02282	363.7712	14.28309
94.05616	363.8066	14.28294
94.08950	363.8396	14.28274
94.12282	363.8722	14.28254
94.15616	363.9037	14.28234
94.18950	363.9398	14.28205
94.22282	363.9708	14.28199
94.25616	364.0052	14.28184
94.28949	364.0414	14.28172
94.32282	364.0738	14.28171
94.35616	364.1062	14.28137
94.38950	364.1392	14.28108
94.42284	364.1722	14.28082
94.45600	364.2044	14.28061
94.48934	364.2392	14.28039
94.52266	364.2713	14.28016
94.55600	364.3045	14.27994
94.58934	364.3369	14.27964
94.62266	364.3742	14.27950
94.65634	364.4052	14.27948
94.68968	364.4384	14.27921
94.72300	364.4720	14.27900
94.75634	364.5044	14.27882
94.78968	364.5391	14.27848
94.82300	364.5725	14.27825
94.85632	364.6050	14.27803
94.88966	364.6386	14.27779
94.92300	364.6718	14.27756
94.95634	364.7060	14.27737
94.98968	364.7390	14.27713
95.02301	364.7733	14.27688
95.05634	364.8079	14.27672
95.08968	364.8392	14.27656
95.12300	364.8734	14.27624
95.15634	364.9067	14.27612
95.18950	364.9394	14.27594
95.22282	364.9723	14.27579
95.25616	365.0052	14.27557
95.28949	365.0376	14.27533
95.32282	365.0700	14.27511
95.35616	365.1046	14.27487
95.38950	365.1392	14.27479
95.42284	365.1716	14.27456
95.45618	365.2050	14.27420
95.48950	365.2378	14.27411
95.52282	365.2702	14.27392
95.55616	365.3041	14.27362
95.58950	365.3375	14.27349
95.62282	365.3687	14.27322
95.65616	365.4034	14.27288
95.68950	365.4362	14.27275
95.72282	365.4696	14.27256
95.75616	365.5032	14.27232
95.78949	365.5369	14.27212
95.82282	365.5704	14.27190
95.85616	365.6026	14.27169
95.88950	365.6363	14.27150
95.92284	365.6688	14.27127
95.95618	365.7022	14.27097
95.98950	365.7357	14.27075
96.02282	365.7688	14.27053
96.05616	365.8025	14.27032
96.08950	365.8352	14.27005
96.12282	365.8695	14.26984
96.15616	365.9030	14.26966
96.18950	365.9367	14.26944
96.22282	365.9680	14.26931
96.25616	366.0030	14.26898
96.28949	366.0366	14.26876
96.32282	366.0703	14.26864
96.35616	366.1047	14.26851
96.38950	366.1354	14.26843
96.42368	366.1697	14.26816
96.45782	366.2035	14.26790
96.49116	366.2369	14.26768
96.52450	366.2697	14.26739
96.55782	366.3023	14.26713
96.59282	366.3358	14.26675
96.62782	366.3725	14.26641
96.66116	366.4055	14.26624
96.69449	366.4385	14.26597
96.72784	366.4704	14.26583
96.76200	366.5041	14.26572
96.79618	366.5381	14.26548
96.82950	366.5720	14.26522
96.86282	366.6050	14.26497
96.89618	366.6393	14.26472
96.92950	366.6728	14.26448
96.96282	366.7059	14.26421
96.99601	366.7394	14.26393
97.02934	366.7754	14.26364
97.06268	366.8064	14.26358
97.09601	366.8386	14.26320
97.12934	366.8742	14.26301
97.16300	366.9074	14.26280
97.19634	366.9368	14.26230
97.22968	366.9750	14.26232
97.26300	367.0083	14.26220
97.29632	367.0449	14.26220
97.32968	367.0742	14.26170
97.36300	367.1086	14.26128
97.39632	367.1424	14.26112
97.42968	367.1704	14.26094
97.46300	367.2117	14.26046
97.49632	367.2478	14.26056
97.52968	367.2720	14.26062
97.56300	367.3080	14.25998
97.59634	367.3420	14.25973
97.62968	367.3747	14.25947
97.66300	367.4085	14.25920
97.69634	367.4424	14.25893
97.72968	367.4764	14.25869
97.76282	367.5086	14.25841
97.79618	367.5415	14.25806
97.82950	367.5752	14.25772
97.86282	367.6088	14.25742
97.89618	367.6411	14.25718
97.92950	367.6745	14.25689
97.96282	367.7084	14.25656
97.99618	367.7410	14.25623
98.02950	367.7752	14.25602
98.06282	367.8094	14.25591
98.09618	367.8413	14.25572
98.12950	367.8744	14.25548
98.16282	367.9084	14.25514
98.19618	367.9394	14.25476
98.22950	367.9759	14.25446
98.26282	368.0096	14.25429
98.29618	368.0450	14.25413
98.32950	368.0771	14.25396
98.36266	368.1082	14.25355
98.39601	368.1429	14.25325
98.42934	368.1765	14.25311
98.46268	368.2090	14.25272
98.49601	368.2410	14.25230
98.52968	368.2752	14.25192
98.56300	368.3090	14.25177
98.59634	368.3440	14.25147
98.62968	368.3772	14.25115
98.66300	368.4105	14.25091
98.69634	368.4434	14.25078
98.72968	368.4750	14.25050
98.76300	368.5067	14.25011
98.79632	368.5408	14.24983
98.82968	368.5747	14.24960
98.86300	368.6075	14.24930
98.89632	368.6416	14.24905
98.92950	368.6755	14.24883
98.96282	368.7092	14.24861
98.99618	368.7439	14.24836
99.02950	368.7789	14.24799
99.06282	368.8100	14.24776
99.09618	368.8430	14.24744
99.12950	368.8760	14.24719
99.16282	368.9087	14.24685
99.19618	368.9413	14.24646
99.22950	368.9752	14.24618
99.26282	369.0086	14.24586
99.29618	369.0416	14.24554
99.32950	369.0746	14.24525
99.36282	369.1080	14.24498
99.39618	369.1403	14.24472
99.42950	369.1742	14.24437
99.46282	369.2074	14.24408
99.49618	369.2418	14.24386
99.52950	369.2767	14.24359
99.56282	369.3079	14.24337
99.59618	369.3418	14.24302
99.63032	369.3770	14.24280
99.66434	369.4113	14.24260
99.69766	369.4450	14.24224
99.73132	369.4786	14.24188
99.76466	369.5115	14.24158
99.79884	369.5467	14.24127
99.83300	369.5798	14.24096
99.86632	369.6132	14.24059
99.89968	369.6467	14.24040
99.93300	369.6805	14.24013
99.96801	369.7169	14.23974
100.0028	369.7505	14.23944
100.0362	369.7832	14.23908
100.0695	369.8156	14.23882
100.1028	369.8492	14.23846
100.1370	369.8823	14.23812
100.1712	369.9179	14.23773
100.2045	369.9510	14.23736
100.2378	369.9842	14.23701
100.2712	370.0174	14.23666
100.3045	370.0513	14.23630
100.3378	370.0836	14.23590
100.3710	370.1180	14.23556
100.4043	370.1511	14.23521
100.4377	370.1844	14.23485
100.4713	370.2183	14.23453
100.5047	370.2526	14.23416
100.5380	370.2852	14.23384
100.5713	370.3175	14.23346
100.6047	370.3479	14.23292
100.6380	370.3857	14.23254
100.6713	370.4183	14.23236
100.7047	370.4511	14.23212
100.7378	370.4850	14.23185
100.7712	370.5178	14.23169
100.8045	370.5511	14.23125
100.8378	370.5838	14.23070
100.8712	370.6176	14.23034
100.9045	370.6508	14.22999
100.9378	370.6844	14.22964
100.9712	370.7190	14.22929
101.0045	370.7522	14.22896
101.0378	370.7848	14.22866
101.0712	370.8180	14.22829
101.1045	370.8530	14.22797
101.1378	370.8842	14.22762
101.1712	370.9166	14.22722
101.2045	370.9491	14.22684
101.2378	370.9854	14.22650
101.2712	371.0180	14.22620
101.3045	371.0511	14.22582
101.3378	371.0866	14.22556
101.3712	371.1178	14.22527
101.4045	371.1502	14.22481
101.4378	371.1850	14.22450
101.4712	371.2175	14.22430
101.5045	371.2478	14.22377
101.5378	371.2836	14.22318
101.5712	371.3194	14.22303
101.6045	371.3511	14.22272
101.6378	371.3845	14.22232
101.6712	371.4167	14.22194
101.7045	371.4502	14.22156
101.7378	371.4832	14.22122
101.7712	371.5156	14.22086
101.8045	371.5500	14.22045
101.8378	371.5822	14.22007
101.8712	371.6165	14.21963
101.9045	371.6518	14.21946
101.9378	371.6840	14.21906
101.9712	371.7175	14.21862
102.0045	371.7502	14.21826
102.0378	371.7840	14.21790
102.0712	371.8174	14.21744
102.1045	371.8507	14.21717
102.1378	371.8839	14.21677
102.1712	371.9178	14.21635
102.2045	371.9518	14.21604
102.2378	371.9840	14.21563
102.2712	372.0168	14.21520
102.3045	372.0500	14.21480
102.3378	372.0815	14.21444
102.3712	372.1152	14.21396
102.4045	372.1485	14.21362
102.4378	372.1816	14.21320
102.4712	372.2161	14.21279
102.5045	372.2507	14.21241
102.5378	372.2840	14.21204
102.5712	372.3172	14.21169
102.6045	372.3506	14.21133
102.6378	372.3836	14.21097
102.6712	372.4168	14.21052
102.7045	372.4496	14.21003
102.7378	372.4830	14.20964
102.7712	372.5158	14.20919
102.8045	372.5472	14.20869
102.8378	372.5820	14.20828
102.8712	372.6150	14.20788
102.9045	372.6478	14.20754
102.9378	372.6818	14.20713
102.9712	372.7156	14.20668
103.0053	372.7484	14.20620
103.0395	372.7826	14.20567
103.0728	372.8164	14.20536
103.1062	372.8516	14.20507
103.1395	372.8830	14.20470
103.1737	372.9180	14.20414
103.2078	372.9518	14.20374
103.2412	372.9852	14.20334
103.2745	373.0180	14.20276
103.3078	373.0520	14.20222
103.3428	373.0875	14.20172
103.3778	373.1232	14.20128
103.4112	373.1562	14.20083
103.4445	373.1874	14.20034
103.4780	373.2216	14.19980
103.5122	373.2568	14.19929
103.5463	373.2911	14.19885
103.5797	373.3238	14.19833
103.6130	373.3590	14.19787
103.6463	373.3903	14.19744
103.6805	373.4248	14.19687
103.7147	373.4616	14.19642
103.7480	373.4940	14.19610
103.7813	373.5278	14.19559
103.8147	373.5600	14.19511
103.8488	373.5945	14.19457
103.8830	373.6305	14.19408
103.9163	373.6626	14.19364
103.9497	373.6960	14.19313
103.9830	373.7293	14.19263
104.0180	373.7645	14.19206
104.0530	373.8003	14.19149
104.0863	373.8330	14.19099
104.1197	373.8676	14.19049
104.1530	373.8989	14.19004
104.1872	373.9331	14.18942
104.2213	373.9668	14.18787
104.2547	374.0012	14.18614
104.2880	374.0348	14.18502
104.3213	374.0680	14.18423
104.3555	374.1024	14.18361
104.3897	374.1360	14.18304
104.4230	374.1694	14.18257
104.4563	374.2020	14.18200
104.4897	374.2363	14.18142
104.5238	374.2710	14.18095
104.5580	374.3034	14.18036
104.5913	374.3366	14.17977
104.6247	374.3744	14.17912
104.6580	374.4080	14.17884
104.6930	374.4419	14.17822
104.7280	374.4758	14.17763
104.7613	374.5134	14.17724
104.7947	374.5454	14.17688
104.8280	374.5775	14.17622
104.8622	374.6098	14.17547
104.8963	374.6428	14.17483
104.9297	374.6776	14.17429
104.9630	374.7112	14.17378
104.9963	374.7443	14.17314
105.0305	374.7784	14.17249
105.0645	374.8126	14.17186
105.0978	374.8465	14.17130
105.1312	374.8808	14.17077
105.1645	374.9139	14.17031
105.1987	374.9479	14.16970
105.2328	374.9818	14.16909
105.2662	375.0146	14.16849
105.2995	375.0468	14.16778
105.3328	375.0796	14.16717
105.3678	375.1144	14.16645
105.4028	375.1498	14.16577
105.4362	375.1824	14.16516
105.4695	375.2145	14.16449
105.5028	375.2478	14.16382
105.5370	375.2821	14.16316
105.5712	375.3160	14.16254
105.6045	375.3500	14.16192
105.6378	375.3840	14.16130
105.6712	375.4162	14.16061
105.7053	375.4509	14.15988
105.7395	375.4858	14.15924
105.7728	375.5190	14.15855
105.8062	375.5528	14.15779
105.8395	375.5872	14.15702
105.8737	375.6219	14.15628
105.9078	375.6550	14.15558
105.9412	375.6894	14.15484
105.9745	375.7231	14.15414
106.0078	375.7556	14.15342
106.0428	375.7917	14.15262
106.0778	375.8271	14.15183
106.1112	375.8611	14.15108
106.1445	375.8931	14.15039
106.1778	375.9280	14.14966
106.2120	375.9618	14.14894
106.2462	375.9952	14.14829
106.2795	376.0278	14.14749
106.3128	376.0606	14.14672
106.3462	376.0939	14.14600
106.3803	376.1281	14.14522
106.4145	376.1613	14.14448
106.4478	376.1943	14.14366
106.4812	376.2283	14.14287
106.5145	376.2614	14.14208
106.5487	376.2937	14.14137
106.5828	376.3288	14.14057
106.6162	376.3610	14.13968
106.6495	376.3950	14.13876
106.6828	376.4279	14.13796
106.7178	376.4635	14.13711
106.7528	376.4994	14.13620
106.7862	376.5336	14.13536
106.8195	376.5669	14.13454
106.8528	376.5996	14.13372
106.8870	376.6332	14.13287
106.9212	376.6674	14.13206
106.9545	376.7019	14.13120
106.9878	376.7344	14.13024
107.0212	376.7676	14.12929
107.0553	376.8024	14.12848
107.0895	376.8368	14.12760
107.1228	376.8692	14.12672
107.1562	376.9024	14.12578
107.1895	376.9352	14.12489
107.2236	376.9672	14.12399
107.2578	377.0028	14.12304
107.2912	377.0344	14.12203
107.3245	377.0688	14.12105
107.3578	377.1017	14.12011
107.3928	377.1360	14.11899
107.4278	377.1712	14.11787
107.4612	377.2047	14.11692
107.4945	377.2378	14.11597
107.5278	377.2710	14.11500
107.5620	377.3046	14.11398
107.5962	377.3396	14.11300
107.6295	377.3726	14.11202
107.6628	377.4051	14.11097
107.6962	377.4398	14.10983
107.7303	377.4737	14.10869
107.7645	377.5089	14.10762
107.7978	377.5415	14.10656
107.8312	377.5735	14.10536
107.8645	377.6084	14.10408
107.8987	377.6414	14.10308
107.9328	377.6758	14.10184
107.9662	377.7090	14.10050
107.9995	377.7444	14.09927
108.0328	377.7769	14.09810
108.0662	377.8098	14.09680
108.0995	377.8450	14.09550
108.1328	377.8786	14.09425
108.1662	377.9117	14.09297
108.1995	377.9458	14.09156
108.2327	377.9782	14.09024
108.2660	378.0136	14.08866
108.2993	378.0486	14.08154
108.3327	378.0811	14.07124
108.3660	378.1150	14.06507
108.3993	378.1478	14.06180
108.4330	378.1814	14.05964
108.4663	378.2146	14.05795
108.4996	378.2481	14.05625
108.5330	378.2803	14.05448
108.5663	378.3131	14.05268
108.5996	378.3461	14.05084
108.6330	378.3811	14.04884
108.6663	378.4137	14.04688
108.6997	378.4481	14.04483
108.7330	378.4818	14.04292
108.7663	378.5142	14.04092
108.7995	378.5482	14.03864
108.8328	378.5825	14.03635
108.8662	378.6143	14.03404
108.8995	378.6489	14.03176
108.9328	378.6817	14.02934
108.9662	378.7145	14.02679
108.9995	378.7477	14.02423
109.0328	378.7812	14.02164
109.0662	378.8128	14.01909
109.0995	378.8491	14.01658
109.1328	378.8798	14.01387
109.1662	378.9118	14.01098
109.1995	378.9460	14.00812
109.2328	378.9770	14.00519
109.2662	379.0131	14.00198
109.2995	379.0457	13.99908
109.3328	379.0778	13.99602
109.3660	379.1111	13.99286
109.3993	379.1461	13.98982
109.4327	379.1787	13.98657
109.4663	379.2126	13.98322
109.4996	379.2455	13.97987
109.5330	379.2786	13.97656
109.5663	379.3118	13.97327
109.5996	379.3445	13.96995
109.6328	379.3783	13.96649
109.6662	379.4122	13.96300
109.6995	379.4446	13.95952
109.7328	379.4782	13.95604
109.7662	379.5122	13.95252
109.7995	379.5457	13.94901
109.8328	379.5786	13.94548
109.8662	379.6125	13.94192
109.8995	379.6450	13.93839
109.9327	379.6792	13.93484
109.9660	379.7116	13.93128
109.9996	379.7448	13.92765
110.0330	379.7794	13.92401
110.0663	379.8116	13.92038
110.0996	379.8452	13.91680
110.1330	379.8787	13.91320
110.1663	379.9116	13.90966
110.1995	379.9434	13.90623
110.2328	379.9757	13.90271
110.2662	380.0099	13.89927
110.2995	380.0441	13.89593
110.3328	380.0784	13.89260
110.3662	380.1105	13.88925
110.3995	380.1433	13.88579
110.4328	380.1768	13.88241
110.4662	380.2100	13.87905
110.4995	380.2429	13.87564
110.5328	380.2766	13.87234
110.5662	380.3098	13.86914
110.5995	380.3431	13.86588
110.6328	380.3777	13.86264
110.6662	380.4115	13.85950
110.6995	380.4450	13.85637
110.7328	380.4775	13.85326
110.7678	380.5126	13.84972
110.8026	380.5472	13.84617
110.8360	380.5806	13.84301
110.8693	380.6147	13.83982
110.9026	380.6470	13.83670
110.9360	380.6806	13.83353
110.9697	380.7148	13.83042
111.0030	380.7470	13.82734
111.0363	380.7808	13.82420
111.0697	380.8121	13.82110
111.1038	380.8488	13.81802
111.1380	380.8827	13.81510
111.1712	380.9163	13.81212
111.2045	380.9508	13.80927
111.2378	380.9822	13.80631
111.2720	381.0178	13.80342
111.3062	381.0516	13.80055
111.3395	381.0851	13.79757
111.3728	381.1195	13.79460
111.4062	381.1529	13.79160
111.4403	381.1862	13.78851
111.4745	381.2203	13.78536
111.5078	381.2546	13.78226
111.5412	381.2891	13.77925
111.5745	381.3195	13.77615
111.6095	381.3578	13.77268
111.6445	381.3936	13.76940
111.6776	381.4266	13.76643
111.7110	381.4612	13.76360
111.7443	381.4928	13.76080
111.7785	381.5250	13.75792
111.8130	381.5595	13.75513
111.8463	381.5924	13.75232
111.8797	381.6274	13.74945
111.9130	381.6591	13.74655
111.9472	381.6946	13.74360
111.9812	381.7287	13.74081
112.0145	381.7620	13.73802
112.0478	381.7956	13.73522
112.0812	381.8286	13.73242
112.1153	381.8622	13.72964
112.1495	381.8962	13.72684
112.1828	381.9300	13.72410
112.2162	381.9592	13.72129
112.2495	381.9967	13.71822
112.2845	382.0317	13.71528
112.3195	382.0676	13.71231
112.3528	382.1000	13.70966
112.3862	382.1344	13.70695
112.4193	382.1664	13.70414
112.4535	382.2002	13.70133
112.4876	382.2337	13.69848
112.5210	382.2662	13.69564
112.5543	382.3013	13.69272
112.5877	382.3341	13.68989
112.6222	382.3683	13.68704
112.6563	382.4028	13.68426
112.6897	382.4356	13.68142
112.7230	382.4675	13.67859
112.7563	382.5002	13.67577
112.7905	382.5367	13.67278
112.8247	382.5702	13.67008
112.8580	382.6030	13.66734
112.8913	382.6372	13.66458
112.9247	382.6709	13.66216
112.9597	382.7034	13.65902
112.9945	382.7397	13.65583
113.0278	382.7718	13.65309
113.0612	382.8047	13.65042
113.0945	382.8378	13.64763
113.1287	382.8715	13.64481
113.1628	382.9080	13.64201
113.1962	382.9407	13.63931
113.2295	382.9730	13.63660
113.2628	383.0066	13.63392
113.2970	383.0395	13.63119
113.3312	383.0764	13.62849
113.3645	383.1098	13.62591
113.3978	383.1435	13.62342
113.4312	383.1765	13.62078
113.4653	383.2097	13.61822
113.4995	383.2433	13.61564
113.5328	383.2758	13.61302
113.5662	383.3100	13.61041
113.5996	383.3422	13.60789
113.6347	383.3774	13.60503
113.6697	383.4119	13.60213
113.7030	383.4464	13.59962
113.7363	383.4806	13.59718
113.7697	383.5141	13.59471
113.8038	383.5463	13.59236
113.8380	383.5814	13.59005
113.8713	383.6142	13.58771
113.9047	383.6488	13.58536
113.9380	383.6819	13.58317
113.9722	383.7164	13.58093
114.0063	383.7495	13.57878
114.0396	383.7845	13.57672
114.0730	383.8166	13.57471
114.1063	383.8490	13.57266
114.1405	383.8845	13.57063
114.1747	383.9185	13.56874
114.2080	383.9518	13.56688
114.2413	383.9866	13.56502
114.2747	384.0185	13.56330
114.3097	384.0536	13.56132
114.3443	384.0894	13.55935
114.3777	384.1220	13.55768
114.4110	384.1556	13.55609
114.4445	384.1885	13.55451
114.4787	384.2221	13.55304
114.5128	384.2569	13.55159
114.5462	384.2910	13.55014
114.5795	384.3238	13.54870
114.6128	384.3570	13.54726
114.6470	384.3906	13.54592
114.6812	384.4239	13.54456
114.7145	384.4590	13.54328
114.7478	384.4915	13.54213
114.7812	384.5250	13.54080
114.8153	384.5606	13.53956
114.8495	384.5956	13.53846
114.8828	384.6290	13.53738
114.9162	384.6622	13.53635
114.9495	384.6958	13.53532
114.9837	384.7299	13.53423
115.0178	384.7650	13.53315
115.0512	384.7989	13.53220
115.0845	384.8314	13.53133
115.1178	384.8644	13.53041
115.1528	384.8998	13.52944
115.1878	384.9355	13.52846
115.2212	384.9690	13.52764
115.2543	385.0030	13.52682
115.2877	385.0368	13.52603
115.3218	385.0684	13.52521
115.3560	385.1045	13.52449
115.3893	385.1384	13.52381
115.4230	385.1736	13.52320
115.4563	385.2044	13.52260
115.4905	385.2388	13.52194
115.5247	385.2738	13.52128
115.5580	385.3072	13.52073
115.5913	385.3398	13.52011
115.6246	385.3713	13.51950
115.6593	385.4064	13.51885
115.6943	385.4438	13.51835
115.7277	385.4756	13.51793
115.7610	385.5078	13.51732
115.7945	385.5422	13.51685
115.8287	385.5747	13.51642
115.8628	385.6092	13.51592
115.8962	385.6412	13.51550
115.9295	385.6750	13.51507
115.9628	385.7072	13.51472
115.9970	385.7394	13.51439
116.0312	385.7730	13.51402
116.0645	385.8064	13.51371
116.0978	385.8404	13.51336
116.1312	385.8743	13.51308
116.1653	385.9090	13.51283
116.1995	385.9441	13.51266
116.2328	385.9756	13.51238
116.2662	386.0101	13.51200
116.2995	386.0431	13.51174
116.3347	386.0774	13.51134
116.3697	386.1130	13.51097
116.4030	386.1460	13.51072
116.4363	386.1789	13.51050
116.4697	386.2124	13.51026
116.5038	386.2490	13.51006
116.5380	386.2830	13.50994
116.5710	386.3160	13.50974
116.6043	386.3486	13.50954
116.6377	386.3841	13.50940
116.6720	386.4166	13.50935
116.7062	386.4517	13.50906
116.7395	386.4844	13.50876
116.7728	386.5190	13.50860
116.8062	386.5530	13.50852
116.8403	386.5878	13.50835
116.8745	386.6219	13.50820
116.9078	386.6555	13.50802
116.9412	386.6878	13.50789
116.9745	386.7211	13.50766
117.0087	386.7575	13.50748
117.0428	386.7909	13.50734
117.0762	386.8244	13.50711
117.1095	386.8586	13.50697
117.1428	386.8912	13.50688
117.1778	386.9258	13.50666
117.2128	386.9619	13.50646
117.2462	386.9954	13.50638
117.2795	387.0288	13.50622
117.3128	387.0614	13.50616
117.3470	387.0956	13.50603
117.3812	387.1307	13.50586
117.4145	387.1631	13.50571
117.4478	387.1956	13.50554
117.4812	387.2294	13.50538
117.5153	387.2652	13.50526
117.5495	387.2986	13.50522
117.5828	387.3314	13.50513
117.6162	387.3641	13.50501
117.6497	387.3985	13.50492
117.6847	387.4311	13.50484
117.7197	387.4654	13.50467
117.7530	387.4992	13.50456
117.7863	387.5316	13.50433
117.8197	387.5658	13.50432
117.8538	387.6010	13.50433
117.8880	387.6357	13.50431
117.9213	387.6684	13.50434
117.9543	387.7010	13.50428
117.9876	387.7324	13.50418
118.0210	387.7652	13.50399
118.0543	387.7986	13.50395
118.0880	387.8320	13.50388
118.1213	387.8665	13.50371
118.1547	387.9006	13.50361
118.1880	387.9348	13.50368
118.2213	387.9668	13.50362
118.2547	388.0015	13.50347
118.2880	388.0348	13.50338
118.3213	388.0678	13.50333
118.3547	388.1003	13.50315
118.3880	388.1338	13.50297
118.4213	388.1670	13.50295
118.4543	388.2004	13.50295
118.4876	388.2342	13.50288
118.5210	388.2678	13.50281
118.5543	388.3016	13.50276
118.5877	388.3345	13.50273
118.6210	388.3680	13.50266
118.6545	388.3992	13.50247
118.6878	388.4350	13.50240
118.7212	388.4682	13.50247
118.7545	388.5010	13.50242
118.7878	388.5350	13.50236
118.8212	388.5650	13.50229
118.8545	388.5984	13.50212
118.8878	388.6330	13.50208
118.9212	388.6628	13.50198
118.9545	388.6981	13.50183
118.9878	388.7317	13.50184
119.0212	388.7648	13.50180
119.0545	388.7965	13.50171
119.0878	388.8305	13.50164
119.1212	388.8651	13.50161
119.1547	388.9009	13.50164
119.1880	388.9336	13.50161
119.2213	388.9687	13.50144
119.2547	389.0027	13.50129
119.2880	389.0376	13.50127
119.3213	389.0716	13.50133
119.3547	389.1039	13.50138
119.3880	389.1371	13.50135
119.4213	389.1687	13.50134
119.4543	389.2026	13.50116
119.4876	389.2350	13.50114
119.5210	389.2697	13.50101
119.5543	389.3012	13.50092
119.5878	389.3336	13.50092
119.6212	389.3660	13.50085
119.6545	389.4010	13.50085
119.6878	389.4352	13.50089
119.7212	389.4662	13.50088
119.7545	389.4974	13.50061
119.7878	389.5332	13.50048
119.8212	389.5675	13.50058
119.8545	389.6010	13.50060
119.8878	389.6342	13.50069
119.9212	389.6667	13.50061
119.9545	389.7002	13.50055
119.9878	389.7314	13.50044
120.0212	389.7661	13.50035
120.0545	389.7998	13.50038
120.0878	389.8328	13.50029
120.1212	389.8676	13.50016
120.1547	389.9023	13.50018
120.1880	389.9356	13.50012
120.2213	389.9689	13.50003
120.2547	390.0030	13.50002
120.2880	390.0350	13.49999
120.3213	390.0689	13.49982
120.3547	390.1028	13.49988
120.3880	390.1375	13.50000
120.4213	390.1702	13.50006
120.4543	390.2014	13.49996
120.4876	390.2356	13.49986
120.5210	390.2686	13.49979
120.5543	390.3015	13.49973
120.5878	390.3354	13.49971
120.6212	390.3678	13.49969
120.6545	390.4010	13.49960
120.6878	390.4348	13.49959
120.7220	390.4675	13.49956
120.7562	390.5035	13.49950
120.7895	390.5356	13.49956
120.8228	390.5687	13.49949
120.8562	390.6011	13.49944
120.8903	390.6356	13.49936
120.9245	390.6674	13.49928
120.9578	390.7041	13.49913
120.9913	390.7356	13.49927
121.0247	390.7680	13.49918
121.0597	390.8032	13.49913
121.0947	390.8396	13.49919
121.1280	390.8720	13.49917
121.1613	390.9072	13.49918
121.1943	390.9391	13.49917
121.2285	390.9727	13.49905
121.2627	391.0062	13.49887
121.2962	391.0418	13.49892
121.3295	391.0756	13.49895
121.3628	391.1094	13.49892
121.3962	391.1428	13.49911
121.4295	391.1746	13.49902
121.4628	391.2093	13.49901
121.4962	391.2417	13.49900
121.5295	391.2744	13.49881
121.5628	391.3088	13.49892
121.5962	391.3422	13.49891
121.6295	391.3757	13.49888
121.6628	391.4080	13.49884
121.6962	391.4414	13.49878
121.7295	391.4756	13.49873
121.7630	391.5085	13.49872
121.7963	391.5415	13.49873
121.8297	391.5757	13.49877
121.8630	391.6092	13.49883
121.8963	391.6420	13.49878
121.9297	391.6748	13.49866
121.9630	391.7100	13.49854
121.9963	391.7435	13.49860
122.0297	391.7762	13.49858
122.0630	391.8120	13.49858
122.0963	391.8470	13.49864
122.1297	391.8780	13.49858
122.1630	391.9100	13.49847
122.1963	391.9432	13.49844
122.2297	391.9761	13.49841
122.2630	392.0106	13.49843
122.2960	392.0449	13.49854
122.3293	392.0742	13.49839
122.3626	392.1094	13.49827
122.3960	392.1438	13.49832
122.4293	392.1782	13.49836
122.4627	392.2122	13.49846
122.4962	392.2456	13.49846
122.5295	392.2786	13.49841
122.5628	392.3125	13.49834
122.5962	392.3463	13.49832
122.6295	392.3787	13.49820
122.6628	392.4123	13.49826
122.6962	392.4456	13.49821
122.7295	392.4800	13.49824
122.7628	392.5134	13.49818
122.7962	392.5464	13.49820
122.8295	392.5792	13.49823
122.8628	392.6130	13.49816
122.8962	392.6472	13.49815
122.9295	392.6796	13.49815
122.9628	392.7112	13.49806
122.9962	392.7448	13.49801
123.0295	392.7803	13.49802
123.0628	392.8126	13.49811
123.0962	392.8456	13.49806
123.1295	392.8787	13.49800
123.1628	392.9105	13.49806
123.1962	392.9440	13.49814
123.2295	392.9769	13.49811
123.2628	393.0110	13.49802
123.2962	393.0441	13.49800
123.3297	393.0761	13.49804
123.3630	393.1100	13.49792
123.3963	393.1430	13.49794
123.4297	393.1760	13.49791
123.4630	393.2091	13.49783
123.4963	393.2424	13.49782
123.5297	393.2748	13.49780
123.5627	393.3081	13.49775
123.5960	393.3413	13.49777
123.6293	393.3745	13.49777
123.6627	393.4072	13.49775
123.6962	393.4415	13.49774
123.7295	393.4753	13.49779
123.7628	393.5075	13.49778
123.7962	393.5412	13.49772
123.8295	393.5742	13.49774
123.8628	393.6067	13.49770
123.8962	393.6406	13.49769
123.9295	393.6743	13.49768
123.9628	393.7075	13.49759
123.9962	393.7392	13.49754
124.0295	393.7722	13.49746
124.0628	393.8068	13.49750
124.0970	393.8420	13.49754
124.1312	393.8740	13.49751
124.1645	393.9080	13.49741
124.1978	393.9424	13.49738
124.2312	393.9746	13.49737
124.2653	394.0088	13.49735
124.2997	394.0431	13.49739
124.3330	394.0760	13.49736
124.3663	394.1095	13.49731
124.3997	394.1441	13.49731
124.4347	394.1797	13.49744
124.4697	394.2136	13.49739
124.5027	394.2472	13.49734
124.5360	394.2804	13.49733
124.5695	394.3134	13.49731
124.6037	394.3470	13.49723
124.6378	394.3817	13.49719
124.6712	394.4164	13.49724
124.7045	394.4497	13.49726
124.7378	394.4828	13.49728
124.7720	394.5170	13.49724
124.8062	394.5496	13.49722
124.8395	394.5838	13.49706
124.8728	394.6182	13.49724
124.9063	394.6533	13.49717
124.9405	394.6881	13.49728
124.9746	394.7212	13.49738
125.0080	394.7536	13.49731
125.0410	394.7854	13.49720
125.0743	394.8200	13.49713
125.1095	394.8550	13.49712
125.1445	394.8913	13.49712
125.1778	394.9248	13.49714
125.2112	394.9572	13.49715
125.2445	394.9912	13.49718
125.2787	395.0250	13.49710
125.3128	395.0586	13.49700
125.3462	395.0920	13.49703
125.3795	395.1253	13.49705
125.4130	395.1584	13.49703
125.4472	395.1922	13.49702
125.4813	395.2254	13.49697
125.5143	395.2582	13.49688
125.5477	395.2913	13.49685
125.5812	395.3248	13.49684
125.6153	395.3595	13.49686
125.6495	395.3934	13.49686
125.6828	395.4270	13.49682
125.7162	395.4606	13.49682
125.7495	395.4941	13.49682
125.7845	395.5294	13.49682
125.8195	395.5644	13.49688
125.8530	395.5984	13.49688
125.8863	395.6310	13.49689
125.9197	395.6658	13.49686
125.9535	395.7002	13.49689
125.9876	395.7321	13.49684
126.0212	395.7655	13.49673
126.0545	395.7993	13.49679
126.0878	395.8342	13.49684
126.1220	395.8698	13.49688
126.1562	395.9040	13.49702
126.1895	395.9348	13.49697
126.2228	395.9692	13.49676
126.2563	396.0037	13.49689
126.2905	396.0370	13.49692
126.3247	396.0742	13.49696
126.3580	396.1052	13.49699
126.3910	396.1375	13.49692
126.4245	396.1715	13.49686
126.4578	396.2044	13.49686
126.4912	396.2380	13.49680
126.5245	396.2696	13.49673
126.5578	396.3038	13.49670
126.5912	396.3377	13.49675
126.6245	396.3702	13.49678
126.6580	396.4029	13.49678
126.6913	396.4362	13.49674
126.7246	396.4693	13.49674
126.7577	396.5020	13.49665
126.7912	396.5357	13.49664
126.8245	396.5706	13.49662
126.8578	396.6050	13.49671
126.8912	396.6362	13.49668
126.9245	396.6706	13.49658
126.9578	396.7042	13.49660
126.9912	396.7390	13.49662
127.0245	396.7712	13.49666
127.0580	396.8058	13.49667
127.0913	396.8386	13.49669
127.1246	396.8719	13.49667
127.1577	396.9049	13.49662
127.1910	396.9378	13.49655
127.2245	396.9705	13.49657
127.2578	397.0044	13.49651
127.2912	397.0380	13.49645
127.3245	397.0717	13.49645
127.3578	397.1052	13.49645
127.3912	397.1400	13.49644
127.4245	397.1733	13.49644
127.4578	397.2070	13.49644
127.4912	397.2400	13.49649
127.5245	397.2717	13.49651
127.5578	397.3056	13.49648
127.5912	397.3390	13.49644
127.6245	397.3730	13.49644
127.6578	397.4064	13.49642
127.6913	397.4397	13.49643
127.7246	397.4718	13.49635
127.7580	397.5042	13.49631
127.7913	397.5379	13.49624
127.8247	397.5720	13.49623
127.8577	397.6052	13.49624
127.8910	397.6375	13.49618
127.9243	397.6715	13.49618
127.9578	397.7056	13.49619
127.9912	397.7385	13.49622
128.0245	397.7723	13.49622
128.0578	397.8061	13.49626
128.0912	397.8394	13.49623
128.1245	397.8731	13.49616
128.1578	397.9057	13.49618
128.1912	397.9402	13.49618
128.2245	397.9717	13.49614
128.2580	398.0065	13.49604
128.2913	398.0398	13.49611
128.3246	398.0742	13.49612
128.3580	398.1072	13.49612
128.3910	398.1400	13.49612
128.4243	398.1734	13.49613
128.4578	398.2067	13.49607
128.4912	398.2406	13.49602
128.5245	398.2737	13.49603
128.5578	398.3069	13.49604
128.5912	398.3389	13.49602
128.6245	398.3731	13.49602
128.6578	398.4074	13.49601
128.6912	398.4395	13.49604
128.7247	398.4734	13.49606
128.7580	398.5070	13.49612
128.7913	398.5389	13.49617
128.8246	398.5713	13.49611
128.8577	398.6063	13.49612
128.8912	398.6390	13.49621
128.9245	398.6730	13.49612
128.9578	398.7050	13.49615
128.9912	398.7371	13.49611
129.0245	398.7717	13.49606
129.0578	398.8024	13.49605
129.0912	398.8365	13.49597
129.1246	398.8696	13.49597
129.1597	398.9047	13.49594
129.1947	398.9394	13.49591
129.2276	398.9731	13.49587
129.2610	399.0066	13.49587
129.2945	399.0400	13.49587
129.3287	399.0752	13.49589
129.3628	399.1102	13.49591
129.3962	399.1436	13.49595
129.4295	399.1770	13.49596
129.4628	399.2106	13.49589
129.4970	399.2448	13.49589
129.5312	399.2787	13.49591
129.5647	399.3104	13.49593
129.5980	399.3448	13.49593
129.6313	399.3780	13.49601
129.6652	399.4105	13.49594
129.6995	399.4458	13.49595
129.7328	399.4795	13.49602
129.7662	399.5117	13.49602
129.7995	399.5454	13.49595
129.8345	399.5816	13.49590
129.8695	399.6132	13.49581
129.9028	399.6490	13.49576
129.9362	399.6824	13.49585
