CLOSED
Version	0.4
Run	873
Instrument	2950 TGA       V5.4A
Module	TGA 1000 øC
Sample	2023_07_12_CBD_powder_1cpm
Size	6.56300	mg
Method	50C to 300C at 1 cpm
Operator	SBK
Comment	2023_07_12_CBD_powder_1cpm
Xcomment	Pan: Platinum           Gas1: Nitrogen  40          Gas2: Nitrogen  40
Text	2023_07_12_CBD_powder_1cpm
Text	First run with CBD powder after new calib
Kcell	1.00000
TempCal	2	pts	156.68	152.50,	376.53	354.00
Thresholds	0.050	0.0000
Controls	Gas 1  Event Off  Sampling 2.0 sec/pt
Nsig	3
Sig1	Time (min)
Sig2	Temperature (øC)
Sig3	Weight (mg)
Date	12-Jul-23
Time	11:54
File	C:\TA\Data\TGA\Skyler\2023_07_12_CBD_powder_1cpm.001
OrgFile	C:\TA\Data\TGA\Skyler\2023_07_12_CBD_powder_1cpm.001
StartOfData
0.0000000	50.09705	6.554302
0.03283334	50.09874	6.554280
0.06616668	50.10364	6.554200
0.09950000	50.11250	6.554172
0.1328334	50.12196	6.554221
0.1661667	50.13380	6.554236
0.1995000	50.14729	6.554253
0.2328333	50.16363	6.554222
0.2661666	50.18122	6.554238
0.2995000	50.19950	6.554238
0.3328333	50.21804	6.554268
0.3661667	50.23816	6.554298
0.3995000	50.25868	6.554272
0.4328333	50.28041	6.554262
0.4661667	50.30390	6.554243
0.4991667	50.32609	6.554199
0.5325000	50.35131	6.554181
0.5658332	50.37656	6.554168
0.5991668	50.40220	6.554144
0.6325000	50.43058	6.554132
0.6658334	50.45870	6.554125
0.6991668	50.48789	6.554111
0.7325000	50.51524	6.554053
0.7658334	50.54441	6.553978
0.7995000	50.57460	6.553909
0.8328334	50.60510	6.553866
0.8661668	50.63596	6.553874
0.8995000	50.66668	6.553862
0.9328332	50.69766	6.553816
0.9661668	50.72990	6.553801
0.9995000	50.76244	6.553780
1.032833	50.79503	6.553702
1.066167	50.82791	6.553701
1.099500	50.86049	6.553712
1.132834	50.89492	6.553735
1.166167	50.92727	6.553716
1.199500	50.96119	6.553658
1.232834	50.99481	6.553661
1.266167	51.02590	6.553671
1.299500	51.05911	6.553624
1.332833	51.09368	6.553549
1.366167	51.12842	6.553594
1.399500	51.16296	6.553638
1.432833	51.19774	6.553634
1.466166	51.23410	6.553565
1.499500	51.26746	6.553626
1.532833	51.30020	6.553657
1.566167	51.33531	6.553547
1.599500	51.37016	6.553521
1.632833	51.40420	6.553549
1.666167	51.43801	6.553588
1.699500	51.47266	6.553565
1.732834	51.50609	6.553558
1.766167	51.53942	6.553538
1.799500	51.57234	6.553512
1.832833	51.60641	6.553505
1.866167	51.64044	6.553490
1.899500	51.67402	6.553428
1.932833	51.70634	6.553412
1.966167	51.73848	6.553406
1.999500	51.77176	6.553435
2.032833	51.80612	6.553360
2.066167	51.84044	6.553332
2.099333	51.87302	6.553350
2.132666	51.90429	6.553387
2.166000	51.93612	6.553360
2.199333	51.96704	6.553250
2.232667	52.00058	6.553188
2.266000	52.03306	6.553181
2.299333	52.06654	6.553213
2.332666	52.09892	6.553210
2.366000	52.13144	6.553175
2.399333	52.16266	6.553193
2.432667	52.19510	6.553195
2.466000	52.22642	6.553174
2.499333	52.25987	6.553228
2.532667	52.29394	6.553196
2.566000	52.32736	6.553223
2.600333	52.36172	6.553218
2.634500	52.39567	6.553168
2.667833	52.42846	6.553110
2.701166	52.46180	6.553120
2.734500	52.49500	6.553110
2.767833	52.52932	6.553144
2.800833	52.56250	6.553172
2.834167	52.59625	6.553168
2.867666	52.62916	6.553150
2.901000	52.66088	6.553113
2.935166	52.69458	6.553108
2.969334	52.72653	6.553082
3.002666	52.75990	6.552972
3.036000	52.79317	6.553008
3.069333	52.82642	6.553021
3.103500	52.85984	6.553046
3.137666	52.89342	6.553037
3.171000	52.92639	6.552942
3.204334	52.95908	6.552936
3.237666	52.99220	6.552930
3.272666	53.02802	6.552918
3.307666	53.06231	6.552926
3.341000	53.09611	6.552981
3.374333	53.12906	6.552976
3.407666	53.16260	6.552984
3.441833	53.19462	6.552989
3.476000	53.22558	6.552954
3.509334	53.25690	6.552957
3.542666	53.28796	6.552953
3.576000	53.31919	6.552942
3.609334	53.35084	6.552898
3.642666	53.38226	6.552848
3.676000	53.41307	6.552810
3.709334	53.44710	6.552836
3.742666	53.48069	6.552851
3.776834	53.51576	6.552838
3.811000	53.55078	6.552837
3.844333	53.58355	6.552840
3.877667	53.61662	6.552859
3.911000	53.65043	6.552843
3.945166	53.68542	6.552826
3.979334	53.71892	6.552807
4.012666	53.75088	6.552731
4.046000	53.78300	6.552729
4.079334	53.81602	6.552774
4.113500	53.84887	6.552729
4.147666	53.88384	6.552705
4.181000	53.91692	6.552734
4.214334	53.95051	6.552746
4.247667	53.98398	6.552682
4.282666	54.01996	6.552638
4.317666	54.05546	6.552660
4.351000	54.08910	6.552698
4.384333	54.12312	6.552666
4.417666	54.15678	6.552650
4.451834	54.19093	6.552639
4.486000	54.22512	6.552624
4.519333	54.25880	6.552609
4.552666	54.29260	6.552608
4.586000	54.32550	6.552570
4.619333	54.35795	6.552603
4.652666	54.39082	6.552621
4.686000	54.42412	6.552612
4.719333	54.45765	6.552662
4.752666	54.49277	6.552664
4.785834	54.52654	6.552720
4.819166	54.55997	6.552735
4.852500	54.59476	6.552714
4.885834	54.63101	6.552713
4.919166	54.66586	6.552690
4.952500	54.70126	6.552700
4.985833	54.73528	6.552664
5.019166	54.77055	6.552650
5.052500	54.80622	6.552612
5.085834	54.84140	6.552630
5.119167	54.87563	6.552616
5.152500	54.91040	6.552634
5.186000	54.94504	6.552608
5.219334	54.97870	6.552580
5.252666	55.01130	6.552572
5.286000	55.04354	6.552536
5.319334	55.07520	6.552505
5.352666	55.10918	6.552495
5.386000	55.14380	6.552495
5.419334	55.17959	6.552484
5.452666	55.21252	6.552447
5.486000	55.24537	6.552432
5.519334	55.27984	6.552377
5.552666	55.31240	6.552300
5.586000	55.34664	6.552312
5.619334	55.37950	6.552350
5.652500	55.41359	6.552329
5.685832	55.44727	6.552339
5.719166	55.47912	6.552316
5.752500	55.51232	6.552280
5.786168	55.54590	6.552348
5.819500	55.57841	6.552331
5.852832	55.61188	6.552320
5.886166	55.64399	6.552282
5.919500	55.67707	6.552266
5.952832	55.70890	6.552241
5.986166	55.74099	6.552200
6.019500	55.77276	6.552231
6.052832	55.80500	6.552257
6.086168	55.83858	6.552185
6.119500	55.86922	6.552222
6.152832	55.90193	6.552228
6.186168	55.93334	6.552208
6.219500	55.96674	6.552271
6.252832	55.99990	6.552264
6.286168	56.03324	6.552192
6.319500	56.06608	6.552180
6.352832	56.09887	6.552192
6.386166	56.13152	6.552192
6.419500	56.16416	6.552208
6.452832	56.19701	6.552271
6.486166	56.22980	6.552256
6.519500	56.26314	6.552194
6.552832	56.29632	6.552210
6.586168	56.32985	6.552185
6.619332	56.36300	6.552201
6.652666	56.39581	6.552158
6.686000	56.42992	6.552136
6.719332	56.46308	6.552079
6.752666	56.49618	6.552062
6.786000	56.52924	6.552110
6.819334	56.56222	6.552121
6.852668	56.59568	6.552092
6.886000	56.62865	6.552058
6.919334	56.66330	6.552039
6.952666	56.69738	6.552030
6.986000	56.72949	6.552032
7.019334	56.76201	6.552041
7.052666	56.79724	6.552000
7.086168	56.83068	6.551982
7.119500	56.86429	6.551985
7.152832	56.89747	6.551938
7.186166	56.93032	6.552031
7.219500	56.96460	6.552014
7.252832	56.99766	6.552020
7.286166	57.03114	6.552071
7.319500	57.06363	6.552080
7.352832	57.09832	6.552100
7.385832	57.13301	6.552100
7.419166	57.16645	6.552047
7.452500	57.19928	6.552020
7.485832	57.23157	6.551962
7.519166	57.26426	6.551903
7.552500	57.29885	6.551754
7.585834	57.33196	6.551744
7.619166	57.36526	6.551865
7.652500	57.39912	6.551875
7.685834	57.43360	6.551771
7.719166	57.46770	6.551753
7.752500	57.50139	6.551698
7.785834	57.53618	6.551742
7.819166	57.56920	6.551793
7.852500	57.60266	6.551846
7.885832	57.63637	6.551780
7.919166	57.66920	6.551794
7.952500	57.70348	6.551740
7.986668	57.73809	6.551660
8.021000	57.77240	6.551750
8.054334	57.80618	6.551795
8.087666	57.84018	6.551782
8.121000	57.87344	6.551826
8.155166	57.90700	6.551772
8.189332	57.93985	6.551650
8.222668	57.97356	6.551670
8.256000	58.00634	6.551684
8.289334	58.03943	6.551650
8.324334	58.07324	6.551747
8.359332	58.10837	6.551744
8.392668	58.14230	6.551728
8.426000	58.17747	6.551718
8.459334	58.21352	6.551610
8.493500	58.24808	6.551630
8.527668	58.28349	6.551650
8.561000	58.31694	6.551614
8.594334	58.35024	6.551575
8.627668	58.38287	6.551604
8.661834	58.41750	6.551615
8.696000	58.45222	6.551563
8.729332	58.48662	6.551593
8.762666	58.52166	6.551606
8.795999	58.55632	6.551600
8.830168	58.59020	6.551618
8.864334	58.62441	6.551597
8.897668	58.65769	6.551582
8.931000	58.69000	6.551548
8.964334	58.72366	6.551520
8.999334	58.75839	6.551451
9.034332	58.79345	6.551394
9.067668	58.82727	6.551433
9.101000	58.86184	6.551424
9.134334	58.89382	6.551400
9.167668	58.92649	6.551436
9.201000	58.96022	6.551450
9.234332	58.99488	6.551421
9.267668	59.02844	6.551431
9.301000	59.06096	6.551407
9.335168	59.09240	6.551443
9.369332	59.12463	6.551438
9.402668	59.15787	6.551372
9.436166	59.19200	6.551404
9.469500	59.22504	6.551464
9.503668	59.25844	6.551492
9.537832	59.29203	6.551446
9.571168	59.32426	6.551444
9.604500	59.35498	6.551368
9.637832	59.38626	6.551314
9.672000	59.41746	6.551324
9.705834	59.44985	6.551284
9.739166	59.48223	6.551274
9.772500	59.51422	6.551279
9.805832	59.54775	6.551245
9.839334	59.58176	6.551190
9.872666	59.61516	6.551228
9.906000	59.64838	6.551287
9.939332	59.68200	6.551262
9.972668	59.71450	6.551291
10.00600	59.74714	6.551277
10.03933	59.78198	6.551230
10.07267	59.81558	6.551238
10.10600	59.84995	6.551309
10.13933	59.88390	6.551274
10.17267	59.91700	6.551274
10.20600	59.95222	6.551230
10.23933	59.98671	6.551162
10.27267	60.01984	6.551101
10.30600	60.05276	6.551135
10.33933	60.08640	6.551154
10.37267	60.11994	6.551120
10.40600	60.15361	6.551137
10.43933	60.18764	6.551120
10.47267	60.22306	6.551130
10.50600	60.25642	6.551096
10.53934	60.28964	6.551038
10.57267	60.32264	6.551010
10.60600	60.35764	6.551019
10.63934	60.39096	6.551062
10.67267	60.42421	6.551128
10.70600	60.45611	6.551099
10.73934	60.48845	6.551079
10.77267	60.51976	6.551114
10.80600	60.55341	6.551104
10.83934	60.58709	6.551100
10.87266	60.62056	6.551098
10.90600	60.65442	6.551049
10.93933	60.68706	6.551041
10.97267	60.71826	6.551002
11.00600	60.75064	6.550910
11.03934	60.78428	6.550868
11.07267	60.81586	6.550900
11.10617	60.84894	6.550910
11.13950	60.88129	6.550904
11.17283	60.91379	6.550863
11.20616	60.94618	6.550848
11.23950	60.97882	6.550850
11.27283	61.01168	6.550891
11.30617	61.04564	6.550959
11.33916	61.07765	6.550935
11.37250	61.11093	6.550874
11.40600	61.14549	6.550850
11.43933	61.17875	6.550863
11.47267	61.21433	6.550867
11.50600	61.24885	6.550850
11.53934	61.28380	6.550762
11.57267	61.31750	6.550789
11.60600	61.35265	6.550800
11.63934	61.38616	6.550793
11.67267	61.42207	6.550762
11.70600	61.45613	6.550719
11.73934	61.48988	6.550726
11.77267	61.52314	6.550719
11.80600	61.55496	6.550696
11.83934	61.58745	6.550663
11.87266	61.62010	6.550636
11.90600	61.65547	6.550610
11.93950	61.69060	6.550632
11.97283	61.72539	6.550644
12.00616	61.75863	6.550610
12.03950	61.79132	6.550582
12.07283	61.82282	6.550552
12.10617	61.85457	6.550587
12.13917	61.88731	6.550618
12.17250	61.91992	6.550528
12.20584	61.95418	6.550506
12.23934	61.98860	6.550421
12.27267	62.02350	6.550368
12.30600	62.05548	6.550420
12.33934	62.09058	6.550414
12.37266	62.12474	6.550378
12.40600	62.15742	6.550363
12.43933	62.18994	6.550390
12.47267	62.22375	6.550374
12.50600	62.25668	6.550412
12.54017	62.28972	6.550298
12.57434	62.32320	6.550248
12.60767	62.35369	6.550302
12.64100	62.38663	6.550316
12.67450	62.42076	6.550328
12.70783	62.45370	6.550332
12.74117	62.48709	6.550287
12.77450	62.52090	6.550190
12.80750	62.55466	6.550230
12.84100	62.58882	6.550176
12.87600	62.62442	6.550135
12.91100	62.66052	6.550137
12.94434	62.69620	6.550151
12.97767	62.72989	6.550138
13.01100	62.76318	6.550105
13.04434	62.79633	6.550090
13.07766	62.82920	6.550082
13.11100	62.86429	6.550043
13.14434	62.89851	6.550037
13.17767	62.93322	6.549956
13.21184	62.96704	6.549908
13.24617	63.00108	6.550059
13.27950	63.03450	6.549988
13.31284	63.06684	6.549930
13.34617	63.10074	6.549951
13.38033	63.13449	6.550041
13.41450	63.16882	6.550064
13.44750	63.20265	6.550021
13.48084	63.23782	6.550051
13.51434	63.27182	6.550048
13.54934	63.30838	6.550005
13.58434	63.34264	6.550100
13.61766	63.37622	6.550122
13.65100	63.40964	6.550146
13.68433	63.44312	6.550072
13.71850	63.47750	6.549970
13.75267	63.51147	6.549868
13.78600	63.54589	6.549804
13.81934	63.57932	6.549849
13.85267	63.61206	6.549808
13.88600	63.64566	6.549840
13.91934	63.67793	6.549878
13.95266	63.70986	6.549813
13.98600	63.74242	6.549834
14.01950	63.77455	6.549780
14.05367	63.80718	6.549762
14.08783	63.83997	6.549770
14.12117	63.87406	6.549758
14.15450	63.90582	6.549665
14.18784	63.94101	6.549714
14.22200	63.97554	6.549804
14.25584	64.01104	6.549813
14.28916	64.04498	6.549835
14.32250	64.07978	6.549844
14.35600	64.11562	6.549802
14.39100	64.15270	6.549809
14.42600	64.18822	6.549810
14.45934	64.22172	6.549745
14.49266	64.25286	6.549756
14.52600	64.28458	6.549778
14.55933	64.31766	6.549799
14.59266	64.34961	6.549759
14.62600	64.38144	6.549649
14.65934	64.41250	6.549636
14.69266	64.44450	6.549614
14.72684	64.47716	6.549630
14.76117	64.51154	6.549635
14.79450	64.54504	6.549656
14.82783	64.57784	6.549615
14.86117	64.61284	6.549576
14.89534	64.64678	6.549616
14.92950	64.68157	6.549633
14.96250	64.71424	6.549657
14.99583	64.74746	6.549643
15.02934	64.77854	6.549613
15.06266	64.81162	6.549616
15.09600	64.84308	6.549555
15.12934	64.87562	6.549459
15.16266	64.90926	6.549468
15.19600	64.94343	6.549518
15.22934	64.97771	6.549510
15.26266	65.01238	6.549511
15.29600	65.04890	6.549551
15.32934	65.08278	6.549466
15.36267	65.11640	6.549411
15.39600	65.15110	6.549387
15.42934	65.18503	6.549338
15.46266	65.21851	6.549301
15.49600	65.25415	6.549214
15.52934	65.28863	6.549160
15.56266	65.32256	6.549201
15.59617	65.35682	6.549220
15.62950	65.38964	6.549160
15.66283	65.42208	6.549198
15.69617	65.45418	6.549157
15.72950	65.48624	6.549172
15.76284	65.51995	6.549226
15.79617	65.55224	6.549293
15.82950	65.58482	6.549268
15.86283	65.61841	6.549247
15.89617	65.65244	6.549244
15.92917	65.68634	6.549176
15.96250	65.72138	6.549092
15.99600	65.75696	6.549143
16.02934	65.79020	6.549199
16.06266	65.82366	6.549084
16.09600	65.85813	6.549114
16.12934	65.89457	6.549040
16.16266	65.92920	6.549037
16.19600	65.96366	6.548873
16.22934	65.99738	6.548872
16.26266	66.03008	6.548871
16.29600	66.06490	6.548822
16.32934	66.09856	6.548778
16.36267	66.13136	6.548718
16.39600	66.16515	6.548629
16.42934	66.19756	6.548590
16.46267	66.23166	6.548562
16.49600	66.26510	6.548496
16.52934	66.29834	6.548437
16.56266	66.33192	6.548354
16.59600	66.36543	6.548243
16.62950	66.39792	6.548250
16.66284	66.43097	6.548214
16.69617	66.46431	6.548130
16.72950	66.49757	6.548125
16.76283	66.53042	6.548196
16.79617	66.56314	6.548064
16.82950	66.59746	6.547985
16.86283	66.62992	6.547982
16.89584	66.66212	6.547986
16.92917	66.69482	6.548022
16.96250	66.72855	6.548101
16.99600	66.76012	6.548054
17.02934	66.79319	6.548018
17.06266	66.82502	6.547964
17.09600	66.85751	6.547938
17.12934	66.88999	6.547962
17.16266	66.92262	6.547918
17.19600	66.95610	6.547900
17.22934	66.98905	6.547940
17.26266	67.02388	6.547866
17.29600	67.05766	6.547850
17.32934	67.09087	6.547864
17.36267	67.12495	6.547885
17.39600	67.16049	6.547852
17.42934	67.19330	6.547865
17.46267	67.22666	6.547839
17.49600	67.26063	6.547830
17.52934	67.29587	6.547770
17.56266	67.32881	6.547761
17.59600	67.36389	6.547769
17.62934	67.39770	6.547743
17.66266	67.43184	6.547744
17.69600	67.46494	6.547724
17.72934	67.49737	6.547669
17.76266	67.53160	6.547712
17.79600	67.56320	6.547739
17.82934	67.59614	6.547712
17.86267	67.62778	6.547671
17.89600	67.65826	6.547613
17.92934	67.68968	6.547605
17.96267	67.72055	6.547637
17.99600	67.75243	6.547735
18.02934	67.78512	6.547705
18.06266	67.81766	6.547669
18.09766	67.85261	6.547645
18.13267	67.88824	6.547660
18.16600	67.92158	6.547656
18.19934	67.95514	6.547635
18.23284	67.98944	6.547651
18.26700	68.02229	6.547646
18.30116	68.05522	6.547609
18.33450	68.08766	6.547566
18.36784	68.12045	6.547561
18.40117	68.15245	6.547578
18.43450	68.18497	6.547534
18.46784	68.21814	6.547520
18.50117	68.25144	6.547468
18.53450	68.28521	6.547426
18.56784	68.31868	6.547504
18.60167	68.35304	6.547504
18.63584	68.38750	6.547498
18.66916	68.42180	6.547553
18.70250	68.45497	6.547532
18.73584	68.48844	6.547568
18.77034	68.52449	6.547598
18.80450	68.55860	6.547586
18.83783	68.59312	6.547482
18.87117	68.62819	6.547410
18.90450	68.66314	6.547332
18.93867	68.69812	6.547316
18.97284	68.73460	6.547341
19.00616	68.77016	6.547342
19.03950	68.80402	6.547296
19.07250	68.83809	6.547261
19.10750	68.87384	6.547190
19.14250	68.90925	6.547234
19.17583	68.94358	6.547180
19.20934	68.97749	6.547187
19.24266	69.01074	6.547206
19.27683	69.04538	6.547174
19.31100	69.07934	6.547105
19.34434	69.11290	6.547098
19.37767	69.14541	6.547078
19.41100	69.17760	6.547045
19.44434	69.21209	6.547118
19.47767	69.24456	6.547150
19.51100	69.27755	6.547113
19.54434	69.30854	6.547053
19.57767	69.34180	6.547027
19.61184	69.37600	6.547100
19.64600	69.40919	6.547099
19.67934	69.44090	6.547082
19.71267	69.47266	6.547082
19.74600	69.50500	6.547053
19.78100	69.54144	6.547004
19.81600	69.57703	6.547070
19.84934	69.61026	6.547006
19.88267	69.64314	6.546922
19.91600	69.67655	6.546978
19.95016	69.71088	6.546961
19.98433	69.74505	6.546931
20.01766	69.77947	6.546895
20.05100	69.81296	6.546876
20.08434	69.84694	6.546858
20.11850	69.87885	6.546894
20.15266	69.91288	6.546870
20.18600	69.94503	6.546876
20.21934	69.97816	6.546832
20.25267	70.01088	6.546894
20.28600	70.04337	6.546824
20.31934	70.07659	6.546777
20.35267	70.11036	6.546765
20.38600	70.14161	6.546760
20.41934	70.17412	6.546713
20.45267	70.20794	6.546724
20.48600	70.24110	6.546713
20.51934	70.27344	6.546682
20.55266	70.30747	6.546668
20.58600	70.34047	6.546691
20.61934	70.37536	6.546720
20.65266	70.40764	6.546752
20.68600	70.44001	6.546783
20.71934	70.47262	6.546750
20.75266	70.50640	6.546734
20.78600	70.53932	6.546717
20.81934	70.57200	6.546684
20.85266	70.60542	6.546648
20.88600	70.63824	6.546650
20.91934	70.66888	6.546622
20.95266	70.69756	6.546534
20.98600	70.72831	6.546528
21.01934	70.75950	6.546536
21.05266	70.79339	6.546560
21.08617	70.82524	6.546582
21.11950	70.85801	6.546607
21.15284	70.88906	6.546636
21.18617	70.92154	6.546616
21.21950	70.95345	6.546626
21.25283	70.98743	6.546592
21.28617	71.02050	6.546670
21.31950	71.05187	6.546690
21.35283	71.08422	6.546658
21.38617	71.11743	6.546666
21.41950	71.15118	6.546686
21.45284	71.18464	6.546703
21.48617	71.21956	6.546662
21.51950	71.25429	6.546707
21.55284	71.28801	6.546726
21.58617	71.32207	6.546660
21.61950	71.35534	6.546588
21.65284	71.38913	6.546608
21.68617	71.42282	6.546601
21.71950	71.45782	6.546601
21.75283	71.49270	6.546516
21.78617	71.52884	6.546426
21.81950	71.56312	6.546496
21.85283	71.59856	6.546576
21.88617	71.63356	6.546644
21.91917	71.66730	6.546670
21.95250	71.69960	6.546503
21.98584	71.73325	6.546450
22.01917	71.76684	6.546552
22.05266	71.80130	6.546606
22.08600	71.83512	6.546630
22.11934	71.86987	6.546614
22.15266	71.90550	6.546682
22.18600	71.93995	6.546591
22.21934	71.97438	6.546487
22.25266	72.00708	6.546436
22.28600	72.03900	6.546425
22.31934	72.07169	6.546424
22.35266	72.10501	6.546430
22.38600	72.13840	6.546550
22.41934	72.17125	6.546538
22.45266	72.20576	6.546344
22.48600	72.23929	6.546240
22.51934	72.27197	6.546342
22.55266	72.30376	6.546414
22.58600	72.33674	6.546426
22.61934	72.36931	6.546430
22.65266	72.40394	6.546472
22.68600	72.43859	6.546490
22.71934	72.47481	6.546371
22.75266	72.51030	6.546339
22.78600	72.54371	6.546322
22.81934	72.57852	6.546308
22.85266	72.61394	6.546259
22.88600	72.64650	6.546306
22.91934	72.67994	6.546232
22.95266	72.71448	6.546164
22.98600	72.74708	6.546264
23.01934	72.77944	6.546332
23.05266	72.81326	6.546371
23.08600	72.84668	6.546264
23.11934	72.87916	6.546160
23.15266	72.91206	6.546203
23.18600	72.94430	6.546221
23.21934	72.97728	6.546238
23.25266	73.01003	6.546304
23.28600	73.04000	6.546265
23.32017	73.07370	6.546232
23.35434	73.10613	6.546199
23.38766	73.14016	6.546176
23.42100	73.17326	6.546190
23.45434	73.20745	6.546196
23.48934	73.24369	6.546189
23.52434	73.27932	6.546210
23.55766	73.31482	6.546256
23.59100	73.34889	6.546270
23.62433	73.38250	6.546221
23.65850	73.41472	6.546152
23.69266	73.44839	6.546094
23.72600	73.48074	6.546072
23.75933	73.51422	6.546121
23.79266	73.54664	6.546099
23.82684	73.58080	6.546086
23.86100	73.61708	6.546130
23.89434	73.65118	6.546132
23.92766	73.68442	6.546074
23.96100	73.71700	6.546039
23.99516	73.74959	6.546094
24.02934	73.78386	6.546112
24.06266	73.81594	6.546122
24.09600	73.84766	6.546088
24.12934	73.87988	6.546132
24.16434	73.91489	6.546164
24.19934	73.94898	6.546186
24.23266	73.98258	6.546168
24.26600	74.01592	6.546145
24.29934	74.04804	6.546103
24.33350	74.08225	6.546036
24.36766	74.11426	6.546042
24.40100	74.14691	6.546094
24.43434	74.17809	6.546109
24.46766	74.21194	6.546082
24.50100	74.24585	6.546118
24.53434	74.27986	6.546086
24.56766	74.31590	6.546050
24.60100	74.35136	6.546040
24.63433	74.38555	6.546106
24.66850	74.42036	6.546096
24.70266	74.45515	6.546108
24.73600	74.48739	6.546082
24.76934	74.52229	6.546023
24.80266	74.55757	6.546012
24.83684	74.59210	6.546042
24.87100	74.62678	6.546026
24.90434	74.66114	6.545989
24.93766	74.69625	6.546032
24.97100	74.73121	6.546014
25.00434	74.76531	6.545956
25.03766	74.80020	6.545880
25.07100	74.83704	6.545935
25.10434	74.87144	6.545982
25.13766	74.90686	6.545859
25.17100	74.94011	6.545828
25.20434	74.97339	6.545877
25.23750	75.00782	6.545888
25.27084	75.04088	6.545875
25.30417	75.07413	6.545862
25.33750	75.10784	6.545824
25.37083	75.14204	6.545762
25.40450	75.17606	6.545860
25.43784	75.20911	6.545836
25.47117	75.24300	6.545829
25.50450	75.27695	6.545715
25.53784	75.30936	6.545728
25.57117	75.34234	6.545821
25.60450	75.37590	6.545808
25.63767	75.40958	6.545857
25.67100	75.44303	6.545816
25.70434	75.47571	6.545746
25.73767	75.50999	6.545850
25.77100	75.54401	6.545824
25.80434	75.57874	6.545837
25.83767	75.61094	6.545882
25.87100	75.64359	6.545830
25.90434	75.67848	6.545820
25.93766	75.71204	6.545804
25.97100	75.74568	6.545730
26.00434	75.77686	6.545690
26.03766	75.80768	6.545664
26.07100	75.83962	6.545645
26.10434	75.87197	6.545661
26.13767	75.90610	6.545698
26.17100	75.93916	6.545592
26.20434	75.97254	6.545558
26.23767	76.00611	6.545620
26.27100	76.03881	6.545644
26.30434	76.07407	6.545550
26.33767	76.10756	6.545611
26.37100	76.14062	6.545624
26.40434	76.17507	6.545594
26.43766	76.20803	6.545560
26.47100	76.24035	6.545593
26.50434	76.27241	6.545625
26.53766	76.30615	6.545588
26.57100	76.34020	6.545543
26.60434	76.37256	6.545560
26.63767	76.40700	6.545513
26.67084	76.44118	6.545564
26.70416	76.47360	6.545540
26.73783	76.50689	6.545544
26.77117	76.54111	6.545581
26.80450	76.57462	6.545569
26.83783	76.60814	6.545640
26.87117	76.64260	6.545640
26.90434	76.67637	6.545632
26.93766	76.70863	6.545560
26.97100	76.74094	6.545498
27.00434	76.77403	6.545598
27.03766	76.80626	6.545584
27.07100	76.83724	6.545551
27.10434	76.86997	6.545556
27.13767	76.90261	6.545590
27.17100	76.93594	6.545526
27.20434	76.97002	6.545500
27.23767	77.00206	6.545512
27.27100	77.03488	6.545472
27.30434	77.06712	6.545440
27.33767	77.09920	6.545500
27.37100	77.13040	6.545520
27.40434	77.16321	6.545454
27.43766	77.19384	6.545536
27.47083	77.22416	6.545582
27.50417	77.25534	6.545562
27.53750	77.28761	6.545566
27.57084	77.32030	6.545605
27.60450	77.35503	6.545615
27.63783	77.38744	6.545623
27.67117	77.42028	6.545615
27.70450	77.45262	6.545569
27.73783	77.48540	6.545647
27.77117	77.51936	6.545585
27.80450	77.55342	6.545507
27.83783	77.58622	6.545532
27.87117	77.62090	6.545489
27.90450	77.65532	6.545496
27.93783	77.68916	6.545476
27.97117	77.72226	6.545482
28.00450	77.75386	6.545459
28.03750	77.78295	6.545448
28.07084	77.81481	6.545440
28.10416	77.84588	6.545430
28.13750	77.87876	6.545404
28.17084	77.91094	6.545462
28.20500	77.94478	6.545484
28.23916	77.97962	6.545406
28.27250	78.01452	6.545293
28.30584	78.04957	6.545282
28.33916	78.08440	6.545293
28.37417	78.12168	6.545180
28.40917	78.15714	6.545229
28.44284	78.19078	6.545188
28.47617	78.22438	6.545252
28.50950	78.25904	6.545244
28.54284	78.29347	6.545259
28.57617	78.32695	6.545240
28.60950	78.36189	6.545190
28.64284	78.39544	6.545264
28.67617	78.43002	6.545249
28.71033	78.46397	6.545293
28.74450	78.49770	6.545226
28.77784	78.53169	6.545196
28.81100	78.56688	6.545150
28.84434	78.60132	6.545089
28.87850	78.63620	6.545031
28.91266	78.67251	6.545022
28.94600	78.70700	6.545057
28.97934	78.74094	6.544976
29.01267	78.77488	6.544978
29.04766	78.80976	6.545016
29.08266	78.84334	6.545035
29.11600	78.87700	6.544945
29.14934	78.91080	6.545030
29.18266	78.94410	6.545059
29.21684	78.97928	6.544963
29.25100	79.01366	6.545016
29.28434	79.04618	6.545012
29.31766	79.07993	6.544961
29.35083	79.11332	6.544986
29.38500	79.14774	6.545074
29.41950	79.18138	6.545176
29.45283	79.21684	6.545080
29.48617	79.25043	6.545044
29.51950	79.28412	6.545039
29.55367	79.31758	6.545052
29.58783	79.35030	6.545049
29.62117	79.38429	6.544990
29.65434	79.41816	6.544876
29.68766	79.45182	6.544864
29.72266	79.48725	6.544772
29.75766	79.52138	6.544785
29.79100	79.55506	6.544818
29.82434	79.59022	6.544817
29.85766	79.62422	6.544891
29.89184	79.65780	6.544835
29.92600	79.69205	6.544736
29.95933	79.72444	6.544751
29.99266	79.75649	6.544819
30.02600	79.78816	6.544758
30.05933	79.82036	6.544766
30.09266	79.85382	6.544726
30.12600	79.88812	6.544683
30.15934	79.92116	6.544693
30.19266	79.95458	6.544711
30.22600	79.98658	6.544669
30.25933	80.01934	6.544698
30.29266	80.05186	6.544600
30.32600	80.08349	6.544644
30.35933	80.11868	6.544648
30.39266	80.15005	6.544644
30.42600	80.18176	6.544656
30.45933	80.21598	6.544700
30.49250	80.24993	6.544632
30.52583	80.28250	6.544576
30.55917	80.31651	6.544570
30.59283	80.35046	6.544574
30.62617	80.38356	6.544609
30.65950	80.41722	6.544624
30.69284	80.45076	6.544589
30.72617	80.48249	6.544565
30.75950	80.51643	6.544540
30.79284	80.54809	6.544440
30.82617	80.58118	6.544450
30.85950	80.61578	6.544514
30.89284	80.64918	6.544547
30.92600	80.68356	6.544530
30.95933	80.71762	6.544562
30.99266	80.75090	6.544611
31.02600	80.78340	6.544524
31.05933	80.81806	6.544504
31.09266	80.85011	6.544547
31.12600	80.88108	6.544488
31.15934	80.91220	6.544385
31.19266	80.94420	6.544412
31.22600	80.97708	6.544502
31.25933	81.01074	6.544593
31.29266	81.04364	6.544644
31.32600	81.07836	6.544574
31.35933	81.11097	6.544512
31.39266	81.14562	6.544503
31.42600	81.17978	6.544556
31.45933	81.21340	6.544522
31.49266	81.24770	6.544530
31.52600	81.28009	6.544614
31.55933	81.31238	6.544623
31.59266	81.34578	6.544602
31.62600	81.37920	6.544537
31.65934	81.41306	6.544475
31.69266	81.44536	6.544470
31.72583	81.47844	6.544526
31.75917	81.51395	6.544541
31.79250	81.54613	6.544649
31.82583	81.57818	6.544560
31.85917	81.61293	6.544510
31.89250	81.64634	6.544590
31.92583	81.68062	6.544572
31.95917	81.71462	6.544606
31.99250	81.74905	6.544609
32.02583	81.78208	6.544510
32.05917	81.81425	6.544402
32.09284	81.84790	6.544415
32.12617	81.88003	6.544414
32.15950	81.91350	6.544386
32.19284	81.94686	6.544406
32.22617	81.98040	6.544390
32.25950	82.01336	6.544421
32.29283	82.04660	6.544453
32.32617	82.07972	6.544412
32.35950	82.11318	6.544430
32.39284	82.14676	6.544450
32.42617	82.18081	6.544445
32.45950	82.21418	6.544481
32.49267	82.24738	6.544402
32.52600	82.27944	6.544301
32.55933	82.31285	6.544170
32.59266	82.34711	6.544254
32.62600	82.38188	6.544320
32.65933	82.41569	6.544439
32.69266	82.44908	6.544360
32.72600	82.48168	6.544300
32.75934	82.51401	6.544257
32.79266	82.54796	6.544196
32.82600	82.58184	6.544197
32.85933	82.61532	6.544162
32.89266	82.64819	6.544052
32.92600	82.68236	6.544062
32.95933	82.71528	6.544232
32.99267	82.74722	6.544179
33.02600	82.77988	6.544130
33.05933	82.81282	6.544109
33.09266	82.84600	6.544127
33.12600	82.87711	6.544192
33.15950	82.91062	6.544208
33.19284	82.94395	6.544223
33.22617	82.97720	6.544174
33.26033	83.01071	6.544118
33.29450	83.04562	6.544119
33.32784	83.07886	6.544128
33.36117	83.11260	6.544030
33.39450	83.14634	6.544126
33.42833	83.18072	6.544250
33.46250	83.21415	6.544195
33.49584	83.24694	6.544123
33.52917	83.28103	6.544028
33.56250	83.31363	6.543988
33.59600	83.34695	6.543990
33.62933	83.38038	6.544030
33.66250	83.41234	6.543979
33.69600	83.44453	6.543980
33.72917	83.47806	6.543972
33.76250	83.51148	6.544000
33.79584	83.54486	6.543982
33.82916	83.57960	6.543916
33.86250	83.61234	6.543844
33.89617	83.64532	6.543901
33.92950	83.67962	6.543868
33.96283	83.71305	6.543859
33.99617	83.74742	6.543904
34.02950	83.78028	6.543887
34.06283	83.81426	6.543871
34.09617	83.84692	6.543826
34.12950	83.88134	6.543758
34.16284	83.91516	6.543732
34.19617	83.94856	6.543730
34.22950	83.98288	6.543742
34.26283	84.01663	6.543806
34.29617	84.05059	6.543805
34.32950	84.08453	6.543784
34.36284	84.11709	6.543761
34.39617	84.15051	6.543713
34.42950	84.18445	6.543750
34.46283	84.21625	6.543776
34.49617	84.25089	6.543672
34.52950	84.28342	6.543722
34.56283	84.31682	6.543730
34.59617	84.35044	6.543723
34.62950	84.38300	6.543704
34.66284	84.41584	6.543687
34.69617	84.44932	6.543650
34.72950	84.48258	6.543616
34.76283	84.51598	6.543655
34.79617	84.54871	6.543652
34.82950	84.58390	6.543619
34.86284	84.61879	6.543632
34.89617	84.65222	6.543672
34.92950	84.68574	6.543640
34.96283	84.71876	6.543589
34.99617	84.75272	6.543609
35.02950	84.78438	6.543610
35.06283	84.81728	6.543586
35.09617	84.85022	6.543568
35.12950	84.88295	6.543457
35.16284	84.91688	6.543441
35.19617	84.95106	6.543474
35.22917	84.98453	6.543406
35.26250	85.01772	6.543384
35.29584	85.04956	6.543404
35.32916	85.08247	6.543352
35.36250	85.11524	6.543301
35.39583	85.14888	6.543332
35.42916	85.18256	6.543379
35.46250	85.21476	6.543348
35.49584	85.24856	6.543276
35.52933	85.28172	6.543279
35.56250	85.31424	6.543348
35.59583	85.34592	6.543326
35.62916	85.37757	6.543310
35.66250	85.40875	6.543289
35.69584	85.44239	6.543305
35.72917	85.47574	6.543274
35.76250	85.50980	6.543234
35.79584	85.54262	6.543220
35.82916	85.57695	6.543182
35.86250	85.61061	6.543200
35.89583	85.64484	6.543198
35.92916	85.67972	6.543237
35.96250	85.71366	6.543214
35.99584	85.74672	6.543088
36.02917	85.78114	6.543115
36.06267	85.81388	6.543212
36.09600	85.84526	6.543213
36.12933	85.87799	6.543218
36.16266	85.91022	6.543175
36.19600	85.94353	6.543163
36.22933	85.97792	6.543209
36.26266	86.01139	6.543242
36.29600	86.04504	6.543301
36.32933	86.07799	6.543304
36.36267	86.11072	6.543224
36.39600	86.14424	6.543152
36.42933	86.17834	6.543270
36.46350	86.21347	6.543252
36.49766	86.24705	6.543240
36.53100	86.28087	6.543175
36.56433	86.31446	6.543149
36.59767	86.34699	6.543094
36.63266	86.38245	6.543158
36.66766	86.41789	6.543140
36.70100	86.45258	6.543074
36.73433	86.48488	6.543059
36.76766	86.51922	6.543126
36.80100	86.55224	6.543135
36.83433	86.58640	6.543135
36.86767	86.61890	6.543090
36.90100	86.65312	6.543032
36.93433	86.68598	6.543037
36.96766	86.72032	6.543054
37.00100	86.75353	6.543048
37.03433	86.78816	6.543071
37.06766	86.82144	6.543056
37.10100	86.85534	6.543033
37.13434	86.88849	6.543081
37.16766	86.92188	6.543030
37.20100	86.95508	6.542940
37.23433	86.98824	6.542984
37.26766	87.02281	6.543016
37.30100	87.05492	6.543020
37.33433	87.09009	6.542998
37.36767	87.12342	6.542948
37.40100	87.15645	6.542920
37.43433	87.19101	6.542910
37.46766	87.22313	6.542870
37.50100	87.25636	6.542902
37.53433	87.28978	6.542996
37.56766	87.32316	6.542972
37.60100	87.35629	6.542891
37.63434	87.39032	6.542954
37.66766	87.42281	6.542955
37.70100	87.45582	6.542876
37.73433	87.48884	6.542859
37.76766	87.52381	6.542879
37.80100	87.55672	6.542856
37.83433	87.58991	6.542878
37.86767	87.62270	6.542906
37.90100	87.65429	6.542868
37.93433	87.68792	6.542805
37.96766	87.72236	6.542822
38.00100	87.75542	6.542874
38.03433	87.78778	6.542869
38.06766	87.81991	6.542816
38.10100	87.85309	6.542822
38.13434	87.88734	6.542812
38.16766	87.92009	6.542808
38.20100	87.95501	6.542810
38.23433	87.99009	6.542945
38.26766	88.02238	6.543015
38.30100	88.05640	6.542902
38.33433	88.09014	6.542899
38.36767	88.12332	6.542932
38.40100	88.15649	6.542868
38.43433	88.18946	6.542900
38.46766	88.22265	6.542890
38.50100	88.25626	6.542890
38.53433	88.28999	6.542872
38.56766	88.32265	6.542844
38.60100	88.35590	6.542825
38.63434	88.38955	6.542848
38.66766	88.42164	6.542810
38.70100	88.45419	6.542759
38.73433	88.48664	6.542743
38.76766	88.51972	6.542672
38.80100	88.55236	6.542646
38.83433	88.58550	6.542686
38.86767	88.61801	6.542719
38.90100	88.65174	6.542724
38.93433	88.68549	6.542598
38.96766	88.71932	6.542650
39.00100	88.75262	6.542672
39.03433	88.78584	6.542701
39.06766	88.81874	6.542770
39.10100	88.85138	6.542718
39.13450	88.88451	6.542666
39.16783	88.91834	6.542596
39.20117	88.95169	6.542728
39.23450	88.98556	6.542642
39.26784	89.01881	6.542582
39.30117	89.05152	6.542548
39.33417	89.08459	6.542524
39.36750	89.11757	6.542492
39.40100	89.14959	6.542406
39.43433	89.18251	6.542438
39.46766	89.21588	6.542500
39.50100	89.24936	6.542445
39.53433	89.28218	6.542410
39.56766	89.31486	6.542340
39.60100	89.34950	6.542288
39.63434	89.38257	6.542374
39.66766	89.41642	6.542362
39.70100	89.44936	6.542392
39.73433	89.48225	6.542457
39.76766	89.51548	6.542343
39.80100	89.54939	6.542344
39.83433	89.58288	6.542340
39.86767	89.61686	6.542299
39.90100	89.65084	6.542250
39.93433	89.68462	6.542266
39.96766	89.71682	6.542239
40.00183	89.75056	6.542226
40.03600	89.78524	6.542239
40.06933	89.81868	6.542180
40.10266	89.85134	6.542156
40.13617	89.88466	6.542163
40.17034	89.91824	6.542148
40.20450	89.95145	6.542132
40.23784	89.98526	6.542093
40.27117	90.01864	6.542070
40.30450	90.05281	6.542082
40.33867	90.08655	6.542135
40.37283	90.12069	6.542040
40.40584	90.15592	6.542032
40.43916	90.19094	6.542058
40.47250	90.22501	6.542082
40.50583	90.25786	6.542068
40.53933	90.29093	6.542050
40.57266	90.32422	6.541970
40.60600	90.35759	6.542032
40.63933	90.39062	6.542028
40.67267	90.42442	6.542046
40.70600	90.45796	6.542070
40.73933	90.49152	6.542072
40.77267	90.52524	6.542044
40.80600	90.55914	6.542004
40.83933	90.59218	6.541972
40.87266	90.62576	6.541949
40.90600	90.65832	6.541891
40.93933	90.69126	6.541842
40.97266	90.72455	6.541906
41.00600	90.75814	6.541870
41.03934	90.79158	6.541810
41.07266	90.82399	6.541835
41.10600	90.85749	6.541848
41.13933	90.89176	6.541840
41.17266	90.92488	6.541856
41.20600	90.95834	6.541830
41.23934	90.99159	6.541783
41.27266	91.02355	6.541772
41.30600	91.05609	6.541726
41.33933	91.08866	6.541654
41.37266	91.12324	6.541638
41.40616	91.15600	6.541568
41.43950	91.19007	6.541526
41.47283	91.22319	6.541512
41.50617	91.25726	6.541468
41.53950	91.29080	6.541482
41.57283	91.32364	6.541500
41.60617	91.35801	6.541488
41.63950	91.39165	6.541500
41.67283	91.42486	6.541455
41.70584	91.45907	6.541444
41.73916	91.49312	6.541418
41.77250	91.52582	6.541367
41.80583	91.56031	6.541379
41.83933	91.59324	6.541388
41.87266	91.62705	6.541314
41.90600	91.66139	6.541328
41.93934	91.69296	6.541372
41.97266	91.72631	6.541293
42.00600	91.75926	6.541285
42.03934	91.79188	6.541312
42.07266	91.82466	6.541318
42.10600	91.85876	6.541262
42.13933	91.89129	6.541312
42.17266	91.92344	6.541309
42.20600	91.95582	6.541290
42.23934	91.98858	6.541224
42.27266	92.02168	6.541210
42.30617	92.05340	6.541198
42.33950	92.08691	6.541144
42.37283	92.12006	6.541106
42.40616	92.15309	6.541127
42.43950	92.18594	6.541110
42.47283	92.22099	6.541124
42.50617	92.25524	6.541111
42.53916	92.28876	6.541080
42.57250	92.32147	6.541037
42.60584	92.35484	6.541064
42.63916	92.38876	6.541064
42.67250	92.42195	6.540992
42.70600	92.45520	6.540961
42.73934	92.48825	6.540894
42.77266	92.52272	6.540916
42.80600	92.55680	6.540934
42.83933	92.59022	6.540894
42.87266	92.62325	6.540911
42.90600	92.65634	6.540840
42.93934	92.68938	6.540884
42.97266	92.72295	6.540909
43.00600	92.75551	6.540953
43.03934	92.78914	6.540926
43.07266	92.82141	6.540832
43.10600	92.85468	6.540752
43.13933	92.88805	6.540738
43.17266	92.92069	6.540618
43.20600	92.95469	6.540640
43.23934	92.98744	6.540674
43.27266	93.02005	6.540658
43.30617	93.05468	6.540740
43.33950	93.08741	6.540805
43.37283	93.11938	6.540766
43.40616	93.15272	6.540741
43.43950	93.18746	6.540787
43.47283	93.21991	6.540882
43.50617	93.25376	6.540742
43.54033	93.28811	6.540676
43.57450	93.32262	6.540722
43.60783	93.35608	6.540652
43.64117	93.38941	6.540600
43.67450	93.42359	6.540624
43.70783	93.45739	6.540628
43.74117	93.49265	6.540671
43.77450	93.52719	6.540679
43.80783	93.56141	6.540676
43.84117	93.59432	6.540693
43.87533	93.62592	6.540630
43.90950	93.66016	6.540618
43.94283	93.69285	6.540586
43.97617	93.72394	6.540557
44.00950	93.75660	6.540574
44.04367	93.79044	6.540575
44.07784	93.82402	6.540516
44.11117	93.85649	6.540542
44.14450	93.89078	6.540510
44.17750	93.92306	6.540519
44.21166	93.95679	6.540514
44.24584	93.99159	6.540510
44.27934	94.02644	6.540471
44.31266	94.06001	6.540447
44.34600	94.09459	6.540441
44.38016	94.12964	6.540414
44.41434	94.16412	6.540404
44.44766	94.19869	6.540350
44.48100	94.23374	6.540385
44.51433	94.26840	6.540386
44.54933	94.30411	6.540342
44.58433	94.34019	6.540380
44.61767	94.37418	6.540399
44.65100	94.40762	6.540395
44.68433	94.44151	6.540246
44.71766	94.47522	6.540225
44.75100	94.50894	6.540278
44.78433	94.54282	6.540260
44.81783	94.57511	6.540280
44.85117	94.60890	6.540244
44.88533	94.64316	6.540264
44.91950	94.67714	6.540265
44.95284	94.70914	6.540246
44.98584	94.74256	6.540292
45.01916	94.77436	6.540187
45.05350	94.80725	6.540113
45.08766	94.84259	6.540040
45.12100	94.87484	6.540127
45.15434	94.90686	6.540058
45.18766	94.93920	6.539989
45.22183	94.97284	6.540030
45.25600	95.00688	6.540040
45.28934	95.04035	6.540027
45.32266	95.07189	6.540018
45.35600	95.10566	6.540034
45.39100	95.14137	6.539918
45.42600	95.17769	6.539912
45.45933	95.21168	6.539868
45.49283	95.24539	6.539880
45.52617	95.27926	6.539887
45.55950	95.31181	6.539856
45.59283	95.34535	6.539758
45.62617	95.37778	6.539732
45.65950	95.41161	6.539732
45.69283	95.44488	6.539720
45.72700	95.47811	6.539661
45.76117	95.51231	6.539606
45.79450	95.54542	6.539578
45.82784	95.57872	6.539579
45.86117	95.61316	6.539578
45.89533	95.64545	6.539600
45.92950	95.67944	6.539653
45.96283	95.71232	6.539550
45.99617	95.74409	6.539529
46.02950	95.77666	6.539527
46.06367	95.80975	6.539505
46.09783	95.84138	6.539500
46.13117	95.87506	6.539422
46.16450	95.90850	6.539380
46.19783	95.94056	6.539352
46.23200	95.97482	6.539312
46.26584	96.00756	6.539344
46.29916	96.03992	6.539316
46.33283	96.07326	6.539293
46.36617	96.10650	6.539282
46.40084	96.14056	6.539252
46.43584	96.17578	6.539236
46.46916	96.20813	6.539182
46.50250	96.24191	6.539161
46.53583	96.27559	6.539118
46.56917	96.30922	6.539075
46.60250	96.34244	6.539126
46.63584	96.37554	6.539141
46.66916	96.40928	6.539049
46.70266	96.44166	6.539043
46.73600	96.47491	6.538955
46.76933	96.50853	6.538932
46.80266	96.54251	6.538884
46.83600	96.57661	6.538843
46.86934	96.61106	6.538797
46.90266	96.64344	6.538913
46.93600	96.67726	6.538894
46.96933	96.71059	6.538794
47.00266	96.74494	6.538745
47.03600	96.77953	6.538738
47.06933	96.81371	6.538697
47.10266	96.84825	6.538629
47.13600	96.88305	6.538620
47.16934	96.91699	6.538599
47.20266	96.95088	6.538549
47.23600	96.98613	6.538526
47.26933	97.02119	6.538627
47.30266	97.05494	6.538540
47.33600	97.08850	6.538464
47.36934	97.12201	6.538537
47.40266	97.15422	6.538541
47.43600	97.18682	6.538500
47.46933	97.22078	6.538467
47.50266	97.25414	6.538481
47.53600	97.28726	6.538430
47.56933	97.31918	6.538394
47.60266	97.35205	6.538398
47.63617	97.38459	6.538364
47.66950	97.41792	6.538350
47.70284	97.45131	6.538362
47.73617	97.48418	6.538330
47.76950	97.51762	6.538300
47.80283	97.55224	6.538292
47.83617	97.58534	6.538302
47.86950	97.61838	6.538300
47.90283	97.65118	6.538306
47.93616	97.68469	6.538262
47.96916	97.71805	6.538186
48.00250	97.75249	6.538196
48.03583	97.78676	6.538129
48.06933	97.82316	6.538074
48.10266	97.85761	6.538135
48.13600	97.89039	6.538142
48.16934	97.92331	6.538076
48.20266	97.95599	6.538050
48.23600	97.98906	6.537985
48.26933	98.02356	6.537957
48.30266	98.05464	6.538004
48.33600	98.08878	6.538008
48.36934	98.12106	6.537976
48.40266	98.15356	6.537928
48.43600	98.18625	6.537869
48.46933	98.21997	6.537842
48.50266	98.25406	6.537872
48.53600	98.28586	6.537879
48.56933	98.31942	6.537859
48.60266	98.35220	6.537826
48.63617	98.38664	6.537875
48.66950	98.41835	6.537910
48.70284	98.45211	6.537812
48.73617	98.48601	6.537832
48.76950	98.51936	6.537993
48.80250	98.55165	6.537891
48.83584	98.58559	6.537841
48.86917	98.61954	6.537805
48.90266	98.65074	6.537742
48.93600	98.68381	6.537718
48.96933	98.71863	6.537676
49.00266	98.75235	6.537642
49.03600	98.78570	6.537592
49.06933	98.81847	6.537580
49.10266	98.85082	6.537588
49.13600	98.88374	6.537605
49.16934	98.91816	6.537562
49.20266	98.95264	6.537584
49.23600	98.98687	6.537646
49.26933	99.01816	6.537622
49.30266	99.05219	6.537630
49.33600	99.08524	6.537630
49.36934	99.11828	6.537590
49.40283	99.15306	6.537421
49.43616	99.18566	6.537360
49.46950	99.21890	6.537334
49.50284	99.25362	6.537426
49.53617	99.28710	6.537462
49.56950	99.32119	6.537476
49.60250	99.35320	6.537406
49.63584	99.38694	6.537314
49.66934	99.42080	6.537271
49.70266	99.45509	6.537338
49.73600	99.48682	6.537292
49.76933	99.52031	6.537210
49.80266	99.55292	6.537338
49.83600	99.58546	6.537393
49.86934	99.61847	6.537336
49.90266	99.65214	6.537246
49.93683	99.68659	6.537153
49.97100	99.72084	6.537261
50.00434	99.75375	6.537288
50.03766	99.78819	6.537129
50.07100	99.81996	6.537120
50.10516	99.85454	6.537033
50.13950	99.88832	6.536964
50.17283	99.92103	6.536976
50.20616	99.95571	6.537020
50.23950	99.98848	6.536998
50.27367	100.0236	6.537005
50.30783	100.0574	6.536996
50.34117	100.0898	6.536871
50.37417	100.1237	6.536739
50.40750	100.1567	6.536682
50.44083	100.1912	6.536746
50.47416	100.2257	6.536766
50.50750	100.2590	6.536790
50.54100	100.2931	6.536724
50.57434	100.3272	6.536700
50.60766	100.3613	6.536690
50.64100	100.3940	6.536679
50.67433	100.4270	6.536646
50.70767	100.4604	6.536660
50.74100	100.4927	6.536518
50.77434	100.5275	6.536516
50.80766	100.5611	6.536600
50.84100	100.5935	6.536512
50.87433	100.6274	6.536468
50.90766	100.6602	6.536465
50.94100	100.6940	6.536438
50.97434	100.7281	6.536444
51.00766	100.7610	6.536406
51.04100	100.7953	6.536329
51.07434	100.8311	6.536366
51.10766	100.8652	6.536389
51.14100	100.8984	6.536340
51.17433	100.9318	6.536326
51.20766	100.9654	6.536289
51.24100	100.9999	6.536296
51.27434	101.0333	6.536302
51.30766	101.0660	6.536254
51.34100	101.0986	6.536174
51.37434	101.1313	6.536120
51.40766	101.1629	6.535999
51.44100	101.1972	6.535941
51.47434	101.2301	6.535932
51.50766	101.2647	6.535958
51.54100	101.2975	6.536010
51.57434	101.3300	6.535970
51.60766	101.3648	6.535934
51.64100	101.3969	6.535902
51.67433	101.4299	6.535863
51.70766	101.4631	6.535814
51.74100	101.4970	6.535761
51.77434	101.5305	6.535800
51.80766	101.5638	6.535788
51.84100	101.5971	6.535715
51.87434	101.6309	6.535654
51.90766	101.6639	6.535575
51.94100	101.6973	6.535620
51.97434	101.7318	6.535592
52.00766	101.7657	6.535582
52.04100	101.7997	6.535562
52.07434	101.8334	6.535533
52.10766	101.8652	6.535371
52.14100	101.8991	6.535326
52.17433	101.9336	6.535344
52.20766	101.9666	6.535305
52.24100	102.0006	6.535356
52.27434	102.0334	6.535371
52.30766	102.0651	6.535250
52.34100	102.0986	6.535172
52.37450	102.1320	6.535209
52.40783	102.1643	6.535182
52.44117	102.1981	6.535147
52.47450	102.2316	6.535071
52.50783	102.2670	6.535086
52.54117	102.3011	6.535137
52.57450	102.3340	6.535168
52.60750	102.3673	6.535112
52.64082	102.4002	6.535004
52.67418	102.4315	6.534943
52.70750	102.4640	6.534942
52.74082	102.4984	6.534888
52.77434	102.5321	6.534896
52.80766	102.5654	6.534880
52.84100	102.5979	6.534834
52.87434	102.6313	6.534825
52.90766	102.6658	6.534800
52.94100	102.6995	6.534873
52.97434	102.7326	6.534745
53.00766	102.7670	6.534679
53.04100	102.7996	6.534732
53.07434	102.8322	6.534650
53.10766	102.8648	6.534563
53.14184	102.9002	6.534566
53.17600	102.9341	6.534650
53.20933	102.9675	6.534600
53.24268	103.0003	6.534599
53.27600	103.0329	6.534560
53.30950	103.0664	6.534481
53.34283	103.0997	6.534442
53.37617	103.1325	6.534371
53.40950	103.1664	6.534278
53.44283	103.1990	6.534175
53.47700	103.2334	6.534186
53.51116	103.2680	6.534207
53.54416	103.3009	6.534339
53.57750	103.3344	6.534338
53.61084	103.3679	6.534287
53.64500	103.4021	6.534234
53.67934	103.4371	6.534215
53.71266	103.4697	6.534087
53.74600	103.5022	6.534014
53.77934	103.5356	6.534089
53.81268	103.5684	6.534051
53.84600	103.6019	6.533952
53.87916	103.6341	6.533945
53.91250	103.6663	6.533876
53.94584	103.6987	6.533706
53.97934	103.7321	6.533791
54.01266	103.7653	6.533788
54.04600	103.7980	6.533689
54.07934	103.8314	6.533704
54.11266	103.8664	6.533720
54.14600	103.8991	6.533707
54.17934	103.9334	6.533609
54.21266	103.9664	6.533447
54.24600	104.0000	6.533443
54.27934	104.0330	6.533472
54.31268	104.0663	6.533479
54.34600	104.0997	6.533438
54.37934	104.1326	6.533374
54.41266	104.1651	6.533288
54.44600	104.1992	6.533272
54.47934	104.2329	6.533237
54.51266	104.2657	6.533207
54.54600	104.2991	6.533140
54.57934	104.3327	6.533124
54.61266	104.3661	6.533096
54.64600	104.3994	6.533042
54.67934	104.4347	6.533050
54.71266	104.4659	6.533202
54.74600	104.4989	6.533150
54.77934	104.5340	6.533078
54.81268	104.5659	6.533106
54.84600	104.5998	6.533054
54.87934	104.6329	6.533051
54.91266	104.6676	6.533003
54.94600	104.7003	6.532918
54.97934	104.7352	6.532940
55.01266	104.7681	6.533026
55.04600	104.8018	6.532916
55.07934	104.8361	6.532840
55.11266	104.8688	6.532840
55.14600	104.9028	6.532768
55.17934	104.9350	6.532709
55.21266	104.9679	6.532729
55.24600	105.0005	6.532836
55.27934	105.0347	6.532759
55.31268	105.0664	6.532656
55.34600	105.0986	6.532526
55.37934	105.1317	6.532480
55.41284	105.1652	6.532455
55.44617	105.1980	6.532482
55.47950	105.2302	6.532412
55.51283	105.2633	6.532358
55.54617	105.2962	6.532336
55.57950	105.3290	6.532280
55.61284	105.3633	6.532205
55.64617	105.3966	6.532169
55.67950	105.4312	6.532090
55.71284	105.4651	6.532064
55.74600	105.4984	6.532046
55.77934	105.5312	6.532032
55.81268	105.5654	6.532010
55.84600	105.5986	6.531957
55.87934	105.6326	6.531880
55.91266	105.6664	6.531838
55.94600	105.6997	6.531747
55.97934	105.7330	6.531772
56.01266	105.7671	6.531752
56.04582	105.8002	6.531836
56.07918	105.8318	6.531780
56.11250	105.8646	6.531605
56.14617	105.8978	6.531403
56.17950	105.9323	6.531347
56.21284	105.9645	6.531421
56.24617	105.9980	6.531465
56.27950	106.0297	6.531464
56.31283	106.0646	6.531428
56.34617	106.0967	6.531446
56.37950	106.1295	6.531314
56.41284	106.1621	6.531130
56.44617	106.1952	6.531024
56.47950	106.2284	6.530938
56.51367	106.2625	6.530988
56.54783	106.2968	6.530985
56.58116	106.3309	6.530924
56.61450	106.3644	6.530937
56.64783	106.3981	6.530937
56.68200	106.4296	6.530856
56.71617	106.4631	6.530761
56.74950	106.4947	6.530700
56.78283	106.5284	6.530655
56.81617	106.5619	6.530572
56.84918	106.5966	6.530561
56.88250	106.6293	6.530542
56.91582	106.6627	6.530444
56.94916	106.6970	6.530280
56.98250	106.7321	6.530303
57.01582	106.7652	6.530298
57.04918	106.7997	6.530271
57.08250	106.8334	6.530320
57.11582	106.8669	6.530255
57.14916	106.9011	6.530191
57.18250	106.9349	6.530219
57.21582	106.9706	6.530246
57.24918	107.0038	6.530132
57.28250	107.0383	6.530000
57.31582	107.0726	6.529882
57.34918	107.1053	6.529871
57.38250	107.1370	6.529792
57.41582	107.1690	6.529678
57.44916	107.2017	6.529672
57.48250	107.2353	6.529730
57.51582	107.2676	6.529706
57.54918	107.3005	6.529560
57.58250	107.3323	6.529412
57.61582	107.3644	6.529414
57.64950	107.3989	6.529404
57.68284	107.4304	6.529382
57.71617	107.4624	6.529338
57.74950	107.4956	6.529243
57.78283	107.5288	6.529109
57.81617	107.5632	6.529156
57.84950	107.5948	6.529138
57.88283	107.6275	6.529070
57.91617	107.6598	6.529000
57.94950	107.6936	6.528955
57.98284	107.7277	6.528976
58.01617	107.7610	6.528821
58.04950	107.7942	6.528724
58.08283	107.8269	6.528700
58.11616	107.8603	6.528637
58.14950	107.8943	6.528556
58.18284	107.9271	6.528410
58.21617	107.9618	6.528420
58.24950	107.9952	6.528440
58.28283	108.0289	6.528391
58.31617	108.0623	6.528358
58.34950	108.0964	6.528266
58.38283	108.1323	6.528159
58.41617	108.1668	6.528087
58.44950	108.2011	6.528015
58.48284	108.2366	6.528004
58.51600	108.2701	6.528045
58.54932	108.3033	6.528059
58.58266	108.3366	6.527965
58.61600	108.3706	6.527972
58.64934	108.4054	6.527955
58.68266	108.4382	6.527846
58.71600	108.4734	6.527930
58.74934	108.5049	6.527900
58.78266	108.5390	6.527662
58.81600	108.5709	6.527729
58.84934	108.6039	6.527686
58.88266	108.6358	6.527588
58.91600	108.6685	6.527490
58.94934	108.7009	6.527510
58.98266	108.7350	6.527478
59.01600	108.7682	6.527491
59.04932	108.8005	6.527452
59.08266	108.8320	6.527385
59.11600	108.8654	6.527305
59.14934	108.8988	6.527234
59.18266	108.9317	6.527192
59.21600	108.9649	6.527157
59.24934	108.9952	6.527014
59.28266	109.0291	6.527000
59.31600	109.0627	6.527012
59.34934	109.0962	6.526903
59.38266	109.1305	6.526819
59.41600	109.1659	6.526807
59.44916	109.1995	6.526788
59.48250	109.2345	6.526701
59.51582	109.2679	6.526606
59.54950	109.3013	6.526528
59.58283	109.3348	6.526547
59.61616	109.3684	6.526482
59.64950	109.4016	6.526400
59.68284	109.4352	6.526409
59.71700	109.4703	6.526434
59.75117	109.5030	6.526470
59.78450	109.5354	6.526258
59.81783	109.5692	6.526195
59.85117	109.6020	6.526141
59.88533	109.6352	6.526111
59.91950	109.6694	6.526059
59.95283	109.7019	6.525998
59.98618	109.7364	6.525949
60.01950	109.7691	6.525930
60.05350	109.8031	6.525910
60.08766	109.8356	6.525874
60.12100	109.8691	6.525793
60.15434	109.9019	6.525722
60.18768	109.9356	6.525642
60.22266	109.9706	6.525552
60.25766	110.0066	6.525476
60.29100	110.0402	6.525476
60.32434	110.0751	6.525482
60.35766	110.1098	6.525476
60.39184	110.1445	6.525461
60.42600	110.1785	6.525306
60.45933	110.2134	6.525210
60.49268	110.2471	6.525202
60.52600	110.2804	6.525164
60.55933	110.3138	6.525130
60.59266	110.3480	6.525125
60.62600	110.3810	6.525112
60.65933	110.4152	6.524990
60.69266	110.4485	6.525006
60.72683	110.4832	6.524951
60.76100	110.5165	6.524809
60.79434	110.5502	6.524743
60.82766	110.5834	6.524737
60.86100	110.6169	6.524762
60.89516	110.6505	6.524636
60.92934	110.6862	6.524579
60.96266	110.7194	6.524546
60.99600	110.7527	6.524512
61.02934	110.7866	6.524402
61.06434	110.8206	6.524368
61.09934	110.8554	6.524309
61.13266	110.8890	6.524218
61.16600	110.9214	6.524128
61.19934	110.9544	6.524092
61.23350	110.9883	6.524062
61.26766	111.0207	6.524020
61.30100	111.0539	6.523979
61.33433	111.0876	6.523918
61.36768	111.1212	6.523816
61.40100	111.1540	6.523726
61.43433	111.1873	6.523707
61.46766	111.2192	6.523718
61.50100	111.2496	6.523638
61.53433	111.2809	6.523554
61.56850	111.3138	6.523512
61.60266	111.3479	6.523414
61.63600	111.3812	6.523328
61.66934	111.4144	6.523268
61.70266	111.4472	6.523230
61.73600	111.4808	6.523181
61.76934	111.5142	6.523106
61.80266	111.5472	6.522984
61.83600	111.5805	6.522969
61.86934	111.6142	6.522944
61.90266	111.6471	6.522844
61.93600	111.6807	6.522744
61.96916	111.7142	6.522716
62.00250	111.7476	6.522613
62.03584	111.7806	6.522584
62.06950	111.8145	6.522474
62.10283	111.8477	6.522495
62.13616	111.8825	6.522486
62.16950	111.9160	6.522452
62.20283	111.9475	6.522339
62.23618	111.9812	6.522300
62.26950	112.0135	6.522178
62.30283	112.0467	6.522148
62.33600	112.0796	6.522046
62.36934	112.1127	6.521936
62.40266	112.1463	6.521865
62.43600	112.1798	6.521738
62.46934	112.2143	6.521626
62.50266	112.2472	6.521627
62.53600	112.2807	6.521628
62.56933	112.3147	6.521692
62.60266	112.3462	6.521682
62.63600	112.3776	6.521530
62.66934	112.4085	6.521392
62.70266	112.4415	6.521308
62.73600	112.4747	6.521250
62.76934	112.5088	6.521172
62.80266	112.5440	6.521088
62.83600	112.5791	6.521045
62.86934	112.6144	6.520974
62.90266	112.6504	6.520919
62.93600	112.6845	6.520886
62.96934	112.7187	6.520755
63.00266	112.7518	6.520637
63.03600	112.7852	6.520525
63.06933	112.8193	6.520440
63.10266	112.8539	6.520422
63.13600	112.8894	6.520413
63.16934	112.9232	6.520394
63.20266	112.9568	6.520362
63.23600	112.9910	6.520280
63.26934	113.0241	6.520126
63.30266	113.0596	6.520062
63.33600	113.0937	6.520002
63.36934	113.1262	6.519903
63.40266	113.1602	6.519888
63.43600	113.1933	6.519934
63.46934	113.2270	6.519790
63.50283	113.2598	6.519638
63.53618	113.2925	6.519607
63.56950	113.3259	6.519520
63.60283	113.3596	6.519378
63.63616	113.3921	6.519314
63.66950	113.4257	6.519250
63.70283	113.4593	6.519184
63.73618	113.4916	6.519168
63.76950	113.5248	6.519094
63.80283	113.5584	6.518962
63.83618	113.5924	6.518738
63.86950	113.6268	6.518682
63.90283	113.6592	6.518686
63.93616	113.6929	6.518655
63.96950	113.7263	6.518682
64.00268	113.7573	6.518505
64.03600	113.7902	6.518335
64.06934	113.8233	6.518354
64.10266	113.8550	6.518318
64.13600	113.8863	6.518213
64.16934	113.9190	6.518140
64.20266	113.9521	6.518116
64.23600	113.9848	6.518030
64.26934	114.0176	6.517981
64.30266	114.0498	6.518033
64.33600	114.0808	6.518025
64.36933	114.1131	6.517889
64.40266	114.1472	6.517774
64.43600	114.1790	6.517706
64.46933	114.2129	6.517652
64.50268	114.2461	6.517518
64.53600	114.2790	6.517380
64.56934	114.3125	6.517312
64.60266	114.3450	6.517241
64.63600	114.3769	6.517106
64.66934	114.4113	6.517001
64.70266	114.4436	6.517012
64.73600	114.4772	6.516946
64.76934	114.5113	6.516860
64.80266	114.5442	6.516816
64.83600	114.5770	6.516742
64.86933	114.6120	6.516662
64.90250	114.6473	6.516578
64.93584	114.6792	6.516476
64.96918	114.7130	6.516318
65.00250	114.7460	6.516230
65.03616	114.7801	6.516181
65.06950	114.8135	6.516096
65.10367	114.8468	6.516006
65.13783	114.8805	6.515972
65.17117	114.9128	6.515962
65.20450	114.9466	6.515848
65.23783	114.9811	6.515665
65.27283	115.0177	6.515582
65.30783	115.0538	6.515507
65.34100	115.0859	6.515430
65.37434	115.1185	6.515357
65.40766	115.1523	6.515335
65.44184	115.1865	6.515258
65.47600	115.2241	6.515127
65.50933	115.2584	6.515002
65.54266	115.2930	6.515004
65.57600	115.3264	6.514900
65.61016	115.3610	6.514831
65.64434	115.3962	6.514780
65.67766	115.4282	6.514670
65.71100	115.4609	6.514582
65.74432	115.4943	6.514492
65.77850	115.5284	6.514395
65.81268	115.5623	6.514336
65.84600	115.5962	6.514240
65.87934	115.6284	6.514185
65.91266	115.6605	6.514024
65.94682	115.6938	6.513948
65.98084	115.7284	6.513898
66.01416	115.7605	6.513816
66.04750	115.7921	6.513732
66.08118	115.8240	6.513616
66.11532	115.8585	6.513445
66.14950	115.8936	6.513448
66.18282	115.9266	6.513415
66.21616	115.9591	6.513305
66.24950	115.9920	6.513202
66.28366	116.0261	6.513160
66.31782	116.0605	6.513086
66.35116	116.0938	6.513007
66.38432	116.1266	6.512888
66.41766	116.1598	6.512759
66.45184	116.1939	6.512790
66.48600	116.2290	6.512812
66.51934	116.2627	6.512713
66.55266	116.2980	6.512612
66.58600	116.3311	6.512512
66.62016	116.3663	6.512458
66.65434	116.4026	6.512380
66.68768	116.4368	6.512259
66.72100	116.4708	6.512151
66.75434	116.5038	6.512018
66.78932	116.5398	6.511813
66.82434	116.5753	6.511825
66.85766	116.6078	6.511802
66.89100	116.6415	6.511650
66.92432	116.6751	6.511554
66.95850	116.7093	6.511425
66.99268	116.7445	6.511332
67.02600	116.7773	6.511374
67.05932	116.8111	6.511274
67.09266	116.8436	6.511130
67.12600	116.8784	6.510938
67.15932	116.9108	6.511035
67.19266	116.9438	6.510896
67.22600	116.9780	6.510729
67.25932	117.0103	6.510641
67.29350	117.0452	6.510548
67.32766	117.0790	6.510440
67.36100	117.1122	6.510382
67.39434	117.1454	6.510316
67.42766	117.1778	6.510266
67.46200	117.2090	6.510160
67.49616	117.2422	6.510011
67.52950	117.2732	6.509921
67.56284	117.3059	6.509663
67.59616	117.3387	6.509547
67.63032	117.3733	6.509539
67.66450	117.4072	6.509640
67.69782	117.4391	6.509443
67.73116	117.4722	6.509399
67.76450	117.5030	6.509397
67.79868	117.5360	6.509220
67.83282	117.5706	6.509024
67.86616	117.6040	6.508937
67.89950	117.6365	6.508877
67.93282	117.6698	6.508807
67.96700	117.7042	6.508715
68.00116	117.7376	6.508606
68.03450	117.7722	6.508452
68.06750	117.8063	6.508412
68.10082	117.8400	6.508334
68.13500	117.8745	6.508232
68.16916	117.9095	6.508169
68.20250	117.9440	6.508145
68.23584	117.9766	6.507995
68.26916	118.0092	6.507798
68.30332	118.0468	6.507611
68.33750	118.0793	6.507676
68.37100	118.1166	6.507537
68.40434	118.1439	6.507630
68.43768	118.1795	6.507168
68.47182	118.2137	6.507099
68.50600	118.2471	6.507011
68.53932	118.2796	6.506993
68.57266	118.3129	6.506889
68.60600	118.3442	6.506684
68.64100	118.3814	6.506568
68.67600	118.4154	6.506620
68.70934	118.4487	6.506784
68.74268	118.4805	6.506358
68.77600	118.5135	6.506182
68.80932	118.5464	6.506145
68.84266	118.5814	6.506056
68.87600	118.6164	6.505928
68.90932	118.6527	6.505831
68.94266	118.6875	6.505797
68.97682	118.7241	6.505622
69.01100	118.7596	6.505489
69.04434	118.7938	6.505366
69.07766	118.8283	6.505146
69.11100	118.8624	6.505049
69.14516	118.8965	6.504980
69.17934	118.9302	6.504882
69.21268	118.9635	6.504822
69.24600	118.9942	6.504626
69.27934	119.0266	6.504520
69.31350	119.0586	6.504403
69.34766	119.0940	6.504266
69.38116	119.1294	6.504249
69.41450	119.1624	6.504212
69.44782	119.1953	6.504082
69.48284	119.2298	6.503829
69.51782	119.2658	6.503730
69.55118	119.2988	6.503678
69.58450	119.3334	6.503539
69.61782	119.3680	6.503426
69.65118	119.4001	6.503318
69.68450	119.4337	6.503175
69.71782	119.4664	6.503087
69.75116	119.5000	6.502957
69.78418	119.5327	6.503050
69.81750	119.5660	6.502980
69.85082	119.5991	6.502722
69.88416	119.6336	6.502611
69.91750	119.6665	6.502604
69.95100	119.6998	6.502465
69.98434	119.7337	6.502353
70.01768	119.7646	6.502174
70.05100	119.7974	6.501962
70.08434	119.8298	6.501979
70.11768	119.8628	6.501903
70.15100	119.8953	6.501736
70.18432	119.9280	6.501568
70.21766	119.9611	6.501415
70.25100	119.9931	6.501311
70.28432	120.0264	6.501160
70.31766	120.0602	6.501062
70.35100	120.0948	6.501028
70.38432	120.1282	6.500968
70.41766	120.1613	6.500832
70.45100	120.1938	6.500715
70.48434	120.2261	6.500659
70.51768	120.2575	6.500510
70.55100	120.2891	6.500304
70.58434	120.3186	6.500182
70.61768	120.3473	6.500027
70.65100	120.3759	6.499829
70.68432	120.4048	6.499756
70.71766	120.4336	6.499670
70.75100	120.4621	6.499590
70.78432	120.4916	6.499549
70.81766	120.5208	6.499536
70.85100	120.5498	6.499460
70.88432	120.5767	6.499278
70.91766	120.6031	6.499084
70.95116	120.6303	6.498960
70.98450	120.6550	6.498800
71.01782	120.6836	6.498694
71.05118	120.7103	6.498691
71.08450	120.7373	6.498664
71.11782	120.7633	6.498246
71.15118	120.7924	6.498324
71.18450	120.8213	6.498226
71.21750	120.8511	6.498271
71.25100	120.8800	6.497856
71.28432	120.9111	6.497702
71.31766	120.9413	6.497500
71.35100	120.9738	6.497358
71.38432	121.0054	6.497478
71.41766	121.0378	6.497364
71.45100	121.0728	6.497332
71.48434	121.1031	6.497260
71.51768	121.1376	6.496921
71.55100	121.1724	6.496804
71.58434	121.2070	6.496771
71.61768	121.2424	6.496700
71.65100	121.2774	6.496613
71.68432	121.3121	6.496445
71.71766	121.3483	6.496384
71.75100	121.3846	6.496270
71.78432	121.4207	6.496222
71.81766	121.4540	6.496130
71.85100	121.4917	6.495747
71.88432	121.5274	6.495675
71.91766	121.5640	6.495632
71.95100	121.5999	6.495497
71.98450	121.6363	6.495390
72.01782	121.6731	6.495258
72.05118	121.7074	6.495109
72.08450	121.7442	6.494982
72.11750	121.7794	6.494885
72.15082	121.8153	6.494766
72.18432	121.8498	6.494526
72.21766	121.8866	6.494229
72.25100	121.9236	6.494230
72.28432	121.9593	6.494162
72.31766	121.9949	6.494000
72.35100	122.0317	6.493830
72.38432	122.0666	6.493689
72.41766	122.1024	6.493548
72.45100	122.1391	6.493495
72.48434	122.1773	6.493359
72.51768	122.2124	6.493161
72.55100	122.2481	6.492990
72.58434	122.2848	6.492793
72.61768	122.3213	6.492732
72.65100	122.3580	6.492595
72.68516	122.3945	6.492449
72.71932	122.4313	6.492324
72.75268	122.4674	6.492207
72.78600	122.5020	6.492000
72.81950	122.5378	6.491907
72.85366	122.5747	6.491798
72.88782	122.6104	6.491787
72.92116	122.6460	6.491639
72.95450	122.6809	6.491412
72.98782	122.7157	6.491283
73.02282	122.7521	6.491102
73.05782	122.7887	6.490958
73.09116	122.8233	6.490840
73.12450	122.8575	6.490714
73.15784	122.8915	6.490514
73.19200	122.9275	6.490368
73.22616	122.9632	6.490289
73.25950	122.9965	6.490156
73.29282	123.0313	6.489981
73.32616	123.0656	6.489816
73.36000	123.1005	6.489669
73.39416	123.1348	6.489453
73.42750	123.1698	6.489316
73.46100	123.2024	6.489135
73.49432	123.2370	6.488884
73.52766	123.2699	6.488744
73.56100	123.3031	6.488675
73.59432	123.3366	6.488500
73.62768	123.3715	6.488340
73.66100	123.4042	6.488176
73.69434	123.4381	6.488057
73.72766	123.4728	6.487974
73.76100	123.5066	6.487846
73.79434	123.5401	6.487709
73.82766	123.5734	6.487511
73.86100	123.6060	6.487375
73.89434	123.6380	6.487153
73.92766	123.6729	6.487033
73.96100	123.7066	6.486954
73.99432	123.7413	6.486757
74.02766	123.7744	6.486530
74.06100	123.8081	6.486353
74.09450	123.8428	6.486243
74.12782	123.8764	6.486120
74.16116	123.9094	6.486022
74.19450	123.9423	6.485892
74.22750	123.9768	6.485670
74.26084	124.0099	6.485546
74.29434	124.0424	6.485361
74.32766	124.0753	6.485171
74.36100	124.1086	6.484958
74.39434	124.1418	6.484834
74.42766	124.1754	6.484620
74.46100	124.2080	6.484502
74.49432	124.2426	6.484389
74.52766	124.2760	6.484312
74.56100	124.3080	6.484020
74.59432	124.3424	6.483844
74.62768	124.3748	6.483674
74.66100	124.4075	6.483608
74.69450	124.4412	6.483371
74.72784	124.4749	6.483242
74.76118	124.5087	6.483220
74.79450	124.5426	6.483056
74.82782	124.5760	6.482864
74.86118	124.6099	6.482650
74.89450	124.6439	6.482478
74.92750	124.6768	6.482340
74.96082	124.7097	6.482344
74.99416	124.7423	6.481955
75.02750	124.7778	6.481741
75.06100	124.8123	6.481680
75.09432	124.8460	6.481598
75.12768	124.8788	6.481530
75.16100	124.9113	6.481444
75.19434	124.9442	6.481238
75.22766	124.9768	6.481160
75.26100	125.0104	6.480902
75.29434	125.0441	6.480682
75.32766	125.0770	6.480515
75.36100	125.1100	6.480354
75.39434	125.1436	6.480176
75.42766	125.1757	6.479974
75.46100	125.2109	6.479807
75.49450	125.2435	6.479674
75.52782	125.2768	6.479452
75.56116	125.3076	6.479236
75.59450	125.3414	6.479031
75.62750	125.3744	6.478797
75.66084	125.4077	6.478604
75.69434	125.4409	6.478464
75.72766	125.4742	6.478360
75.76100	125.5088	6.478215
75.79434	125.5419	6.478043
75.82766	125.5757	6.477859
75.86100	125.6088	6.477698
75.89434	125.6410	6.477480
75.92766	125.6755	6.477283
75.96100	125.7094	6.477139
75.99432	125.7434	6.476960
76.02766	125.7774	6.476901
76.06100	125.8110	6.476698
76.09432	125.8443	6.476533
76.12768	125.8784	6.476324
76.16100	125.9129	6.476137
76.19434	125.9459	6.475980
76.22766	125.9804	6.475831
76.26100	126.0146	6.475676
76.29434	126.0495	6.475533
76.32766	126.0835	6.475309
76.36100	126.1175	6.475130
76.39434	126.1509	6.474930
76.42766	126.1842	6.474728
76.46100	126.2172	6.474548
76.49432	126.2498	6.474366
76.52766	126.2829	6.474160
76.56100	126.3147	6.473962
76.59432	126.3491	6.473628
76.62782	126.3817	6.473466
76.66116	126.4143	6.473340
76.69450	126.4474	6.473110
76.72784	126.4802	6.472980
76.76118	126.5128	6.472818
76.79450	126.5453	6.472599
76.82782	126.5770	6.472395
76.86118	126.6108	6.472198
76.89532	126.6448	6.471969
76.92918	126.6782	6.471844
76.96250	126.7099	6.471598
76.99584	126.7438	6.471442
77.02918	126.7774	6.471391
77.06332	126.8115	6.471230
77.09766	126.8464	6.470968
77.13100	126.8800	6.470829
77.16432	126.9127	6.470801
77.19766	126.9456	6.470588
77.23100	126.9786	6.470303
77.26434	127.0121	6.470082
77.29766	127.0458	6.469850
77.33100	127.0796	6.469610
77.36432	127.1129	6.469445
77.39766	127.1464	6.469347
77.43100	127.1805	6.469214
77.46432	127.2129	6.469043
77.49766	127.2465	6.468836
77.53100	127.2796	6.468542
77.56432	127.3131	6.468244
77.59766	127.3468	6.468028
77.63116	127.3796	6.467852
77.66450	127.4143	6.467645
77.69782	127.4490	6.467486
77.73084	127.4826	6.467386
77.76416	127.5157	6.467120
77.79766	127.5498	6.466874
77.83100	127.5838	6.466674
77.86432	127.6170	6.466440
77.89766	127.6497	6.466250
77.93100	127.6840	6.466086
77.96432	127.7172	6.465860
77.99766	127.7499	6.465624
78.03100	127.7831	6.465443
78.06432	127.8158	6.465339
78.09766	127.8498	6.465110
78.13116	127.8822	6.464930
78.16450	127.9165	6.464746
78.19782	127.9492	6.464501
78.23116	127.9813	6.464278
78.26450	128.0149	6.464097
78.29750	128.0475	6.463904
78.33084	128.0794	6.463632
78.36432	128.1140	6.463309
78.39766	128.1461	6.463098
78.43100	128.1803	6.463022
78.46432	128.2137	6.462880
78.49766	128.2449	6.462641
78.53100	128.2777	6.462305
78.56432	128.3117	6.462138
78.59766	128.3454	6.462036
78.63100	128.3806	6.461786
78.66432	128.4151	6.461566
78.69766	128.4474	6.461356
78.73100	128.4805	6.461094
78.76434	128.5126	6.460850
78.79766	128.5466	6.460678
78.83100	128.5789	6.460456
78.86432	128.6130	6.460230
78.89782	128.6454	6.460120
78.93116	128.6778	6.459863
78.96450	128.7101	6.459624
78.99782	128.7430	6.459410
79.03116	128.7763	6.459283
79.06450	128.8091	6.459072
79.09782	128.8410	6.458804
79.13084	128.8751	6.458542
79.16418	128.9078	6.458368
79.19766	128.9402	6.458130
79.23100	128.9745	6.457861
79.26434	129.0076	6.457706
79.29766	129.0401	6.457526
79.33100	129.0730	6.457205
79.36432	129.1073	6.456809
79.39766	129.1401	6.456672
79.43100	129.1744	6.456521
79.46432	129.2094	6.456306
79.49766	129.2409	6.456174
79.53100	129.2734	6.455807
79.56450	129.3070	6.455524
79.59782	129.3401	6.455394
79.63116	129.3745	6.455216
79.66450	129.4083	6.455026
79.69782	129.4426	6.454746
79.73084	129.4773	6.454556
79.76416	129.5107	6.454347
79.79766	129.5446	6.454200
79.83100	129.5771	6.454009
79.86432	129.6096	6.453730
79.89766	129.6427	6.453476
79.93100	129.6770	6.453219
79.96432	129.7106	6.452982
79.99766	129.7447	6.452759
80.03100	129.7776	6.452587
80.06432	129.8113	6.452394
80.09934	129.8444	6.452160
80.13432	129.8793	6.451810
80.16782	129.9115	6.451653
80.20116	129.9453	6.451346
80.23450	129.9791	6.451011
80.26782	130.0126	6.450790
80.30118	130.0458	6.450502
80.33418	130.0780	6.450276
80.36750	130.1121	6.450076
80.40100	130.1454	6.449896
80.43516	130.1798	6.449657
80.46932	130.2126	6.449441
80.50268	130.2452	6.449216
80.53600	130.2779	6.448926
80.56934	130.3120	6.448679
80.60350	130.3473	6.448471
80.63766	130.3811	6.448225
80.67100	130.4147	6.447947
80.70434	130.4498	6.447732
80.73766	130.4831	6.447511
80.77184	130.5166	6.447174
80.80600	130.5516	6.446957
80.83932	130.5843	6.446809
80.87266	130.6179	6.446495
80.90600	130.6517	6.446280
80.94100	130.6860	6.446028
80.97600	130.7207	6.445820
81.00932	130.7551	6.445611
81.04266	130.7879	6.445380
81.07600	130.8218	6.445066
81.10934	130.8556	6.444810
81.14268	130.8880	6.444556
81.17600	130.9211	6.444270
81.20934	130.9549	6.444060
81.24268	130.9890	6.443762
81.27700	131.0236	6.443559
81.31116	131.0570	6.443271
81.34450	131.0920	6.442963
81.37782	131.1241	6.442705
81.41116	131.1579	6.442441
81.44534	131.1934	6.442292
81.47950	131.2269	6.442188
81.51282	131.2592	6.441870
81.54582	131.2922	6.441581
81.57918	131.3248	6.441328
81.61334	131.3588	6.441044
81.64766	131.3929	6.440730
81.68100	131.4262	6.440507
81.71432	131.4597	6.440274
81.74766	131.4925	6.440109
81.78266	131.5280	6.439832
81.81766	131.5616	6.439460
81.85100	131.5953	6.439190
81.88432	131.6290	6.439026
81.91766	131.6622	6.438750
81.95100	131.6961	6.438492
81.98434	131.7301	6.438250
82.01766	131.7637	6.437945
82.05100	131.7973	6.437680
82.08434	131.8320	6.437470
82.11866	131.8660	6.437220
82.15282	131.8993	6.436799
82.18616	131.9337	6.436566
82.21950	131.9668	6.436332
82.25250	132.0003	6.436084
82.28668	132.0338	6.435810
82.32082	132.0682	6.435568
82.35416	132.1018	6.435309
82.38766	132.1351	6.435041
82.42100	132.1681	6.434757
82.45434	132.2020	6.434526
82.48766	132.2357	6.434270
82.52100	132.2709	6.434049
82.55434	132.3048	6.433814
82.58768	132.3396	6.433548
82.62100	132.3733	6.433398
82.65434	132.4070	6.433086
82.68768	132.4394	6.432795
82.72100	132.4731	6.432516
82.75434	132.5058	6.432251
82.78766	132.5390	6.431986
82.82100	132.5731	6.431695
82.85450	132.6067	6.431450
82.88782	132.6380	6.431174
82.92118	132.6712	6.430800
82.95450	132.7039	6.430394
82.98782	132.7358	6.430093
83.02084	132.7687	6.429907
83.05434	132.8013	6.429668
83.08768	132.8364	6.429403
83.12100	132.8700	6.429199
83.15434	132.9032	6.428932
83.18768	132.9372	6.428661
83.22100	132.9703	6.428360
83.25434	133.0026	6.427965
83.28766	133.0349	6.427656
83.32100	133.0680	6.427362
83.35434	133.1021	6.427032
83.38782	133.1361	6.426708
83.42118	133.1696	6.426424
83.45450	133.2028	6.426182
83.48782	133.2367	6.425968
83.52118	133.2681	6.425706
83.55418	133.3018	6.425384
83.58750	133.3361	6.425170
83.62084	133.3686	6.424907
83.65434	133.4021	6.424570
83.68768	133.4356	6.424184
83.72100	133.4683	6.423871
83.75434	133.5008	6.423604
83.78766	133.5361	6.423336
83.82100	133.5699	6.423016
83.85434	133.6032	6.422747
83.88766	133.6366	6.422479
83.92100	133.6712	6.422161
83.95434	133.7034	6.421785
83.98766	133.7375	6.421576
84.02101	133.7721	6.421412
84.05434	133.8049	6.421118
84.08768	133.8374	6.420822
84.12101	133.8707	6.420459
84.15434	133.9029	6.420154
84.18768	133.9361	6.419844
84.22118	133.9707	6.419560
84.25450	134.0044	6.419294
84.28782	134.0371	6.419026
84.32118	134.0698	6.418753
84.35450	134.1014	6.418406
84.38782	134.1353	6.418027
84.42118	134.1673	6.417736
84.45450	134.1998	6.417392
84.48782	134.2334	6.417174
84.52118	134.2670	6.416950
84.55450	134.2996	6.416618
84.58782	134.3333	6.416324
84.62118	134.3658	6.416036
84.65450	134.3987	6.415654
84.68782	134.4306	6.415289
84.72118	134.4641	6.414978
84.75416	134.4990	6.414722
84.78750	134.5315	6.414410
84.82082	134.5647	6.414076
84.85434	134.5968	6.413765
84.88766	134.6309	6.413382
84.92100	134.6650	6.413056
84.95434	134.6978	6.412680
84.98766	134.7310	6.412276
85.02101	134.7649	6.411970
85.05434	134.7978	6.411668
85.08768	134.8319	6.411390
85.12101	134.8656	6.411139
85.15434	134.8996	6.410809
85.18768	134.9338	6.410428
85.22101	134.9667	6.410031
85.25434	135.0004	6.409774
85.28766	135.0331	6.409496
85.32100	135.0666	6.409231
85.35434	135.0991	6.408892
85.38782	135.1339	6.408506
85.42118	135.1675	6.408218
85.45450	135.2003	6.407962
85.48782	135.2339	6.407617
85.52118	135.2665	6.407242
85.55450	135.3003	6.407026
85.58782	135.3329	6.406714
85.62118	135.3656	6.406352
85.65532	135.4003	6.405890
85.68950	135.4343	6.405624
85.72282	135.4669	6.405481
85.75616	135.4997	6.405200
85.78949	135.5315	6.404729
85.82450	135.5677	6.404239
85.85949	135.6031	6.403960
85.89282	135.6365	6.403599
85.92618	135.6699	6.403240
85.95950	135.7035	6.403008
85.99282	135.7374	6.402695
86.02618	135.7714	6.402265
86.05950	135.8038	6.401900
86.09282	135.8369	6.401514
86.12616	135.8709	6.401268
86.16032	135.9060	6.400967
86.19449	135.9406	6.400652
86.22784	135.9747	6.400332
86.26118	136.0086	6.400068
86.29450	136.0416	6.399722
86.32868	136.0754	6.399384
86.36282	136.1108	6.398950
86.39618	136.1448	6.398713
86.42950	136.1779	6.398396
86.46282	136.2114	6.397985
86.49700	136.2449	6.397661
86.53116	136.2791	6.397276
86.56450	136.3112	6.396919
86.59782	136.3444	6.396493
86.63116	136.3777	6.396163
86.66534	136.4122	6.395797
86.69950	136.4459	6.395356
86.73282	136.4790	6.395080
86.76618	136.5119	6.394795
86.79950	136.5456	6.394434
86.83250	136.5785	6.394039
86.86582	136.6116	6.393707
86.89918	136.6461	6.393371
86.93266	136.6799	6.393075
86.96601	136.7137	6.392720
86.99934	136.7462	6.392351
87.03266	136.7792	6.392060
87.06601	136.8124	6.391711
87.09934	136.8466	6.391384
87.13266	136.8796	6.391049
87.16601	136.9133	6.390656
87.19934	136.9470	6.390322
87.23266	136.9798	6.389982
87.26600	137.0140	6.389649
87.29932	137.0460	6.389246
87.33266	137.0784	6.388813
87.36600	137.1115	6.388491
87.39932	137.1444	6.388110
87.43266	137.1775	6.387668
87.46616	137.2112	6.387300
87.49950	137.2458	6.386974
87.53282	137.2783	6.386666
87.56618	137.3101	6.386304
87.59950	137.3426	6.385886
87.63282	137.3778	6.385532
87.66618	137.4094	6.385156
87.69916	137.4419	6.384662
87.73250	137.4743	6.384297
87.76600	137.5069	6.383948
87.79932	137.5416	6.383497
87.83266	137.5751	6.383196
87.86600	137.6083	6.382900
87.89932	137.6426	6.382498
87.93266	137.6748	6.382121
87.96601	137.7085	6.381724
87.99934	137.7418	6.381328
88.03266	137.7747	6.380865
88.06601	137.8082	6.380490
88.09934	137.8420	6.380245
88.13282	137.8750	6.379821
88.16618	137.9080	6.379372
88.19950	137.9418	6.379030
88.23282	137.9754	6.378680
88.26618	138.0096	6.378281
88.29916	138.0425	6.377938
88.33266	138.0757	6.377558
88.36600	138.1099	6.377130
88.39932	138.1433	6.376807
88.43266	138.1766	6.376494
88.46601	138.2094	6.376080
88.49934	138.2430	6.375637
88.53266	138.2769	6.375276
88.56601	138.3104	6.374880
88.59934	138.3429	6.374462
88.63266	138.3779	6.374011
88.66618	138.4114	6.373649
88.69950	138.4456	6.373280
88.73282	138.4801	6.372852
88.76618	138.5136	6.372472
88.79916	138.5476	6.372090
88.83250	138.5812	6.371728
88.86600	138.6148	6.371329
88.89932	138.6476	6.370958
88.93266	138.6815	6.370570
88.96601	138.7157	6.370200
88.99934	138.7492	6.369800
89.03266	138.7820	6.369368
89.06601	138.8152	6.368918
89.09934	138.8490	6.368496
89.13282	138.8822	6.368110
89.16618	138.9152	6.367698
89.19950	138.9486	6.367270
89.23250	138.9813	6.366840
89.26600	139.0139	6.366409
89.29932	139.0471	6.366009
89.33266	139.0812	6.365600
89.36600	139.1150	6.365185
89.39932	139.1484	6.364840
89.43266	139.1814	6.364424
89.46601	139.2144	6.363972
89.49934	139.2490	6.363635
89.53282	139.2832	6.363251
89.56618	139.3157	6.362744
89.59950	139.3485	6.362278
89.63250	139.3821	6.361894
89.66601	139.4151	6.361511
89.69934	139.4481	6.361057
89.73266	139.4823	6.360674
89.76600	139.5146	6.360352
89.79932	139.5480	6.359903
89.83266	139.5814	6.359473
89.86684	139.6154	6.359098
89.90118	139.6491	6.358643
89.93450	139.6827	6.358181
89.96782	139.7146	6.357756
90.00116	139.7478	6.357276
90.03500	139.7820	6.356863
90.06934	139.8153	6.356399
90.10266	139.8481	6.356050
90.13600	139.8814	6.355615
90.16934	139.9151	6.355208
90.20266	139.9484	6.354800
90.23600	139.9814	6.354314
90.26934	140.0139	6.353834
90.30266	140.0470	6.353454
90.33618	140.0796	6.353070
90.37032	140.1142	6.352618
90.40450	140.1475	6.352144
90.43782	140.1810	6.351712
90.47082	140.2137	6.351235
90.50416	140.2456	6.350748
90.53850	140.2810	6.350296
90.57266	140.3153	6.349853
90.60601	140.3490	6.349392
90.63934	140.3827	6.348970
90.67266	140.4152	6.348608
90.70766	140.4501	6.348160
90.74266	140.4854	6.347638
90.77600	140.5188	6.347110
90.80934	140.5524	6.346596
90.84266	140.5868	6.346202
90.87600	140.6226	6.345816
90.90934	140.6565	6.345451
90.94282	140.6891	6.344883
90.97616	140.7226	6.344366
91.00949	140.7556	6.343946
91.04366	140.7888	6.343495
91.07782	140.8238	6.343012
91.11118	140.8570	6.342546
91.14450	140.8911	6.342062
91.17782	140.9252	6.341640
91.21200	140.9598	6.341198
91.24618	140.9936	6.340723
91.27950	141.0253	6.340192
91.31250	141.0598	6.339738
91.34582	141.0925	6.339297
91.38000	141.1265	6.338872
91.41434	141.1620	6.338376
91.44766	141.1951	6.337920
91.48101	141.2298	6.337353
91.51434	141.2695	6.336938
91.54932	141.3213	6.336322
91.58434	141.3644	6.335834
91.61766	141.3957	6.335570
91.65100	141.4192	6.334989
91.68434	141.4384	6.334500
91.71766	141.4560	6.334020
91.75100	141.4734	6.333523
91.78434	141.4926	6.333036
91.81766	141.5132	6.332604
91.85100	141.5363	6.332087
91.88532	141.5612	6.331567
91.91950	141.5879	6.331074
91.95282	141.6146	6.330637
91.98618	141.6416	6.330120
92.01950	141.6705	6.329604
92.05366	141.6999	6.329196
92.08782	141.7291	6.328728
92.12118	141.7582	6.328156
92.15450	141.7919	6.327620
92.18782	141.8208	6.327354
92.22199	141.8533	6.326703
92.25584	141.8852	6.326216
92.28918	141.9172	6.325758
92.32250	141.9518	6.325270
92.35584	141.9863	6.324882
92.39100	142.0205	6.324316
92.42600	142.0570	6.323620
92.45934	142.0915	6.323214
92.49266	142.1262	6.322746
92.52600	142.1613	6.322210
92.56016	142.1981	6.321648
92.59432	142.2351	6.321158
92.62768	142.2720	6.320694
92.66101	142.3078	6.320240
92.69434	142.3437	6.319724
92.72851	142.3820	6.319265
92.76266	142.4198	6.318855
92.79600	142.4586	6.318348
92.82934	142.4962	6.317835
92.86266	142.5332	6.317245
92.89766	142.5724	6.316548
92.93266	142.6111	6.315937
92.96601	142.6488	6.315422
92.99934	142.6844	6.314992
93.03266	142.7205	6.314566
93.06684	142.7577	6.314113
93.10100	142.7956	6.313594
93.13434	142.8308	6.313091
93.16766	142.8651	6.312474
93.20100	142.9009	6.311897
93.23434	142.9376	6.311368
93.26766	142.9723	6.310812
93.30118	143.0068	6.310245
93.33450	143.0427	6.309753
93.36782	143.0766	6.309244
93.40200	143.1117	6.308726
93.43616	143.1489	6.308162
93.46949	143.1850	6.307612
93.50282	143.2207	6.307060
93.53616	143.2555	6.306542
93.57032	143.2919	6.306023
93.60450	143.3270	6.305541
93.63750	143.3622	6.304972
93.67082	143.3958	6.304380
93.70418	143.4298	6.303837
93.73834	143.4652	6.303375
93.77250	143.4989	6.302860
93.80584	143.5339	6.302282
93.83950	143.5678	6.301780
93.87282	143.6036	6.301256
93.90699	143.6373	6.300666
93.94118	143.6721	6.300034
93.97450	143.7056	6.299438
94.00782	143.7391	6.298904
94.04118	143.7734	6.298359
94.07450	143.8077	6.297785
94.10782	143.8411	6.297239
94.14082	143.8750	6.296704
94.17416	143.9082	6.296128
94.20750	143.9438	6.295566
94.24082	143.9788	6.295042
94.27418	144.0119	6.294463
94.30766	144.0464	6.293898
94.34101	144.0805	6.293332
94.37434	144.1154	6.292768
94.40766	144.1485	6.292211
94.44101	144.1819	6.291648
94.47434	144.2158	6.291039
94.50766	144.2501	6.290484
94.54101	144.2825	6.289921
94.57434	144.3181	6.289326
94.60766	144.3518	6.288774
94.64100	144.3852	6.288156
94.67450	144.4178	6.287613
94.70782	144.4510	6.287072
94.74116	144.4839	6.286492
94.77450	144.5173	6.285894
94.80782	144.5506	6.285303
94.84082	144.5835	6.284710
94.87418	144.6162	6.284115
94.90766	144.6490	6.283572
94.94101	144.6824	6.282998
94.97434	144.7161	6.282390
95.00766	144.7499	6.281802
95.04101	144.7829	6.281250
95.07434	144.8160	6.280688
95.10766	144.8489	6.280074
95.14100	144.8811	6.279380
95.17432	144.9142	6.278718
95.20766	144.9465	6.278080
95.24100	144.9802	6.277431
95.27432	145.0134	6.276844
95.30766	145.0476	6.276240
95.34101	145.0813	6.275628
95.37434	145.1138	6.275070
95.40766	145.1476	6.274432
95.44101	145.1813	6.273822
95.47434	145.2130	6.273243
95.50766	145.2452	6.272637
95.54101	145.2771	6.272030
95.57434	145.3107	6.271414
95.60766	145.3421	6.270816
95.64118	145.3769	6.270153
95.67450	145.4091	6.269545
95.70782	145.4427	6.268963
95.74116	145.4772	6.268322
95.77450	145.5105	6.267719
95.80782	145.5438	6.267068
95.84116	145.5774	6.266398
95.87418	145.6096	6.265716
95.90750	145.6430	6.265070
95.94101	145.6764	6.264508
95.97434	145.7078	6.263884
96.00766	145.7418	6.263219
96.04101	145.7748	6.262640
96.07434	145.8074	6.261945
96.10766	145.8403	6.261326
96.14100	145.8735	6.260746
96.17432	145.9063	6.260130
96.20766	145.9381	6.259475
96.24100	145.9735	6.258881
96.27432	146.0128	6.258300
96.30782	146.0532	6.257621
96.34116	146.0961	6.256916
96.37450	146.1398	6.256238
96.40782	146.1838	6.255519
96.44118	146.2306	6.254902
96.47450	146.2729	6.254254
96.50782	146.3150	6.253652
96.54118	146.3559	6.252955
96.57416	146.3963	6.252190
96.60750	146.4372	6.251520
96.64100	146.4762	6.250880
96.67432	146.5159	6.250164
96.70766	146.5565	6.249714
96.74100	146.5923	6.249010
96.77432	146.6298	6.248278
96.80766	146.6671	6.247670
96.84101	146.7027	6.246965
96.87434	146.7388	6.246278
96.90766	146.7741	6.245620
96.94184	146.8084	6.244990
96.97600	146.8437	6.244301
97.00934	146.8781	6.243526
97.04266	146.9116	6.242862
97.07616	146.9439	6.242127
97.11034	146.9779	6.241426
97.14450	147.0119	6.240795
97.17782	147.0438	6.240030
97.21118	147.0762	6.239368
97.24416	147.1084	6.238642
97.27750	147.1392	6.237920
97.31084	147.1704	6.237222
97.34432	147.2017	6.236594
97.37768	147.2311	6.235857
97.41101	147.2626	6.235059
97.44434	147.2932	6.234310
97.47766	147.3231	6.233674
97.51100	147.3530	6.232967
97.54434	147.3829	6.232231
97.57766	147.4140	6.231546
97.61100	147.4435	6.230864
97.64434	147.4741	6.230118
97.67766	147.5044	6.229348
97.71100	147.5348	6.228662
97.74432	147.5659	6.227930
97.77766	147.5964	6.227239
97.81100	147.6269	6.226570
97.84432	147.6571	6.225883
97.87782	147.6884	6.225059
97.91116	147.7192	6.224377
97.94449	147.7491	6.223644
97.97784	147.7795	6.222899
98.01118	147.8108	6.222191
98.04416	147.8413	6.221425
98.07766	147.8722	6.220618
98.11100	147.9020	6.219870
98.14434	147.9340	6.219193
98.17766	147.9656	6.218451
98.21100	147.9966	6.217810
98.24432	148.0265	6.217090
98.27766	148.0579	6.216320
98.31100	148.0892	6.215566
98.34432	148.1194	6.214792
98.37768	148.1515	6.214106
98.41116	148.1832	6.213406
98.44449	148.2136	6.212650
98.47784	148.2463	6.211926
98.51118	148.2772	6.211148
98.54450	148.3084	6.210356
98.57750	148.3414	6.209637
98.61082	148.3724	6.208963
98.64416	148.4039	6.208174
98.67766	148.4352	6.207377
98.71100	148.4686	6.206567
98.74432	148.5016	6.205903
98.77766	148.5336	6.205150
98.81100	148.5653	6.204386
98.84432	148.6000	6.203699
98.87768	148.6328	6.202918
98.91101	148.6644	6.202066
98.94434	148.6968	6.201293
98.97766	148.7294	6.200593
99.01100	148.7619	6.199849
99.04450	148.7936	6.198990
99.07782	148.8264	6.198234
99.11118	148.8611	6.197456
99.14450	148.8936	6.196760
99.17782	148.9259	6.195913
99.21118	148.9600	6.195068
99.24416	148.9942	6.194294
99.27750	149.0271	6.193574
99.31084	149.0598	6.192766
99.34432	149.0923	6.191954
99.37768	149.1242	6.191172
99.41101	149.1574	6.190466
99.44434	149.1906	6.189720
99.47766	149.2236	6.188926
99.51100	149.2567	6.188124
99.54434	149.2901	6.187359
99.57766	149.3229	6.186503
99.61100	149.3574	6.185682
99.64450	149.3909	6.184929
99.67782	149.4241	6.184053
99.71118	149.4570	6.183202
99.74450	149.4908	6.182390
99.77750	149.5235	6.181580
99.81084	149.5561	6.180722
99.84432	149.5902	6.179918
99.87768	149.6237	6.179106
99.91101	149.6574	6.178241
99.94434	149.6902	6.177407
99.97766	149.7241	6.176610
100.0110	149.7558	6.175745
100.0443	149.7899	6.174789
100.0777	149.8262	6.173995
100.1110	149.8599	6.173372
100.1443	149.8916	6.172473
100.1777	149.9255	6.171620
100.2110	149.9584	6.170760
100.2443	149.9914	6.169856
100.2777	150.0256	6.169056
100.3110	150.0591	6.168261
100.3445	150.0924	6.167362
100.3778	150.1251	6.166542
100.4112	150.1589	6.165705
100.4445	150.1912	6.164792
100.4787	150.2247	6.163900
100.5128	150.2604	6.163002
100.5462	150.2937	6.162120
100.5795	150.3255	6.161258
100.6128	150.3606	6.160407
100.6470	150.3927	6.159449
100.6808	150.4268	6.158550
100.7142	150.4603	6.157788
100.7475	150.4944	6.156830
100.7808	150.5284	6.156055
100.8160	150.5629	6.155130
100.8510	150.5976	6.154243
100.8843	150.6308	6.153362
100.9177	150.6634	6.152456
100.9510	150.6973	6.151494
100.9852	150.7319	6.150593
101.0193	150.7659	6.149761
101.0527	150.7997	6.148851
101.0860	150.8327	6.147882
101.1193	150.8664	6.146961
101.1527	150.9004	6.145996
101.1860	150.9348	6.145066
101.2193	150.9678	6.144234
101.2527	151.0008	6.143321
101.2860	151.0341	6.142490
101.3202	151.0690	6.141551
101.3543	151.1030	6.140640
101.3877	151.1360	6.139768
101.4210	151.1699	6.138840
101.4543	151.2019	6.137972
101.4893	151.2369	6.136907
101.5243	151.2725	6.135883
101.5577	151.3049	6.134994
101.5910	151.3382	6.134094
101.6243	151.3723	6.133145
101.6585	151.4058	6.132249
101.6927	151.4403	6.131350
101.7260	151.4731	6.130441
101.7593	151.5072	6.129534
101.7927	151.5401	6.128576
101.8268	151.5748	6.127630
101.8610	151.6080	6.126764
101.8943	151.6416	6.125859
101.9277	151.6748	6.124908
101.9610	151.7084	6.123970
101.9952	151.7419	6.122996
102.0293	151.7766	6.122038
102.0627	151.8097	6.121108
102.0960	151.8420	6.120118
102.1293	151.8766	6.119137
102.1627	151.9090	6.118150
102.1960	151.9421	6.117197
102.2293	151.9754	6.116250
102.2627	152.0088	6.115298
102.2960	152.0425	6.114350
102.3293	152.0749	6.113318
102.3627	152.1086	6.112316
102.3960	152.1416	6.111350
102.4293	152.1746	6.110418
102.4627	152.2084	6.109484
102.4960	152.2416	6.108481
102.5293	152.2751	6.107511
102.5627	152.3078	6.106593
102.5960	152.3410	6.105564
102.6293	152.3740	6.104566
102.6627	152.4072	6.103650
102.6960	152.4400	6.102680
102.7293	152.4731	6.101730
102.7627	152.5070	6.100784
102.7960	152.5404	6.099822
102.8293	152.5730	6.098822
102.8627	152.6075	6.097782
102.8960	152.6392	6.096746
102.9292	152.6724	6.095626
102.9625	152.7061	6.094682
102.9958	152.7400	6.093746
103.0292	152.7730	6.092830
103.0625	152.8048	6.091844
103.0958	152.8385	6.090734
103.1292	152.8715	6.089726
103.1625	152.9041	6.088672
103.1958	152.9385	6.087620
103.2292	152.9722	6.086610
103.2627	153.0052	6.085594
103.2960	153.0391	6.084536
103.3293	153.0730	6.083484
103.3627	153.1054	6.082570
103.3960	153.1392	6.081504
103.4293	153.1712	6.080313
103.4627	153.2058	6.079412
103.4960	153.2396	6.078374
103.5293	153.2725	6.077334
103.5627	153.3066	6.076382
103.5960	153.3403	6.075312
103.6293	153.3722	6.074256
103.6627	153.4072	6.073126
103.6960	153.4389	6.072136
103.7293	153.4731	6.071078
103.7627	153.5070	6.070075
103.7960	153.5406	6.069131
103.8293	153.5746	6.068042
103.8627	153.6083	6.066970
103.8960	153.6424	6.066048
103.9293	153.6771	6.064926
103.9627	153.7108	6.063790
103.9960	153.7439	6.062788
104.0293	153.7785	6.061697
104.0627	153.8122	6.060668
104.0960	153.8438	6.059592
104.1293	153.8770	6.058438
104.1627	153.9093	6.057359
104.1960	153.9417	6.056314
104.2293	153.9739	6.055228
104.2627	154.0066	6.054120
104.2960	154.0405	6.053066
104.3293	154.0754	6.052046
104.3627	154.1093	6.050913
104.3960	154.1416	6.049795
104.4293	154.1748	6.048730
104.4627	154.2082	6.047650
104.4960	154.2412	6.046590
104.5293	154.2751	6.045470
104.5627	154.3083	6.044414
104.5960	154.3412	6.043318
104.6293	154.3750	6.042129
104.6627	154.4074	6.040942
104.6960	154.4411	6.039819
104.7293	154.4753	6.038863
104.7627	154.5075	6.037706
104.7960	154.5395	6.036496
104.8293	154.5724	6.035350
104.8626	154.6057	6.034270
104.8960	154.6390	6.033248
104.9293	154.6736	6.032094
104.9627	154.7058	6.031038
104.9960	154.7375	6.029829
105.0293	154.7722	6.028650
105.0627	154.8064	6.027528
105.0960	154.8398	6.026418
105.1293	154.8728	6.025298
105.1627	154.9054	6.024140
105.1968	154.9394	6.022950
105.2310	154.9739	6.021829
105.2643	155.0084	6.020694
105.2977	155.0421	6.019514
105.3310	155.0760	6.018380
105.3660	155.1117	6.017060
105.4010	155.1475	6.015752
105.4343	155.1810	6.014596
105.4677	155.2155	6.013398
105.5010	155.2500	6.012191
105.5352	155.2851	6.011020
105.5693	155.3191	6.009879
105.6027	155.3528	6.008671
105.6360	155.3860	6.007452
105.6693	155.4206	6.006306
105.7026	155.4545	6.005088
105.7360	155.4880	6.003838
105.7692	155.5212	6.002688
105.8025	155.5539	6.001526
105.8358	155.5865	6.000262
105.8692	155.6201	5.999043
105.9028	155.6534	5.997830
105.9362	155.6873	5.996626
105.9695	155.7208	5.995484
106.0028	155.7532	5.994266
106.0362	155.7868	5.992981
106.0695	155.8194	5.991812
106.1028	155.8519	5.990605
106.1362	155.8866	5.989407
106.1693	155.9190	5.988217
106.2026	155.9520	5.986946
106.2360	155.9850	5.985683
106.2693	156.0183	5.984426
106.3026	156.0509	5.983118
106.3360	156.0850	5.981914
106.3693	156.1186	5.980680
106.4026	156.1502	5.979432
106.4360	156.1837	5.978172
106.4693	156.2167	5.977019
106.5027	156.2492	5.975776
106.5360	156.2819	5.974472
106.5693	156.3156	5.973219
106.6027	156.3487	5.971978
106.6360	156.3822	5.970757
106.6693	156.4151	5.969456
106.7026	156.4488	5.968193
106.7360	156.4814	5.966968
106.7693	156.5148	5.965670
106.8026	156.5482	5.964387
106.8360	156.5815	5.963087
106.8692	156.6139	5.961744
106.9025	156.6471	5.960449
106.9362	156.6806	5.959136
106.9695	156.7138	5.957807
107.0028	156.7478	5.956509
107.0362	156.7813	5.955204
107.0695	156.8138	5.953938
107.1028	156.8481	5.952651
107.1362	156.8820	5.951309
107.1695	156.9148	5.950000
107.2028	156.9482	5.948736
107.2360	156.9816	5.947441
107.2693	157.0154	5.946150
107.3026	157.0496	5.944824
107.3360	157.0824	5.943500
107.3693	157.1164	5.942213
107.4026	157.1498	5.940950
107.4360	157.1832	5.939587
107.4693	157.2180	5.938246
107.5027	157.2487	5.936941
107.5360	157.2830	5.935582
107.5693	157.3163	5.934207
107.6027	157.3492	5.932920
107.6360	157.3824	5.931636
107.6692	157.4163	5.930246
107.7025	157.4478	5.928870
107.7358	157.4814	5.927512
107.7692	157.5147	5.926152
107.8028	157.5491	5.924809
107.8362	157.5808	5.923461
107.8695	157.6138	5.922092
107.9028	157.6473	5.920691
107.9362	157.6812	5.919336
107.9695	157.7145	5.917974
108.0028	157.7478	5.916568
108.0362	157.7816	5.915183
108.0695	157.8143	5.913860
108.1028	157.8471	5.912507
108.1360	157.8798	5.911099
108.1693	157.9141	5.909664
108.2026	157.9466	5.908320
108.2360	157.9800	5.906868
108.2693	158.0136	5.905470
108.3026	158.0471	5.904105
108.3360	158.0810	5.902744
108.3693	158.1146	5.901373
108.4026	158.1465	5.899963
108.4360	158.1813	5.898608
108.4693	158.2153	5.897234
108.5027	158.2492	5.895762
108.5360	158.2830	5.894378
108.5693	158.3175	5.892976
108.6027	158.3512	5.891574
108.6360	158.3838	5.890154
108.6693	158.4177	5.888704
108.7026	158.4516	5.887321
108.7360	158.4843	5.886005
108.7693	158.5176	5.884566
108.8026	158.5506	5.883086
108.8360	158.5842	5.881538
108.8693	158.6181	5.880096
108.9026	158.6514	5.878650
108.9358	158.6841	5.877212
108.9692	158.7188	5.875764
109.0025	158.7504	5.874248
109.0358	158.7844	5.872784
109.0692	158.8187	5.871391
109.1028	158.8503	5.869951
109.1362	158.8836	5.868433
109.1695	158.9166	5.866954
109.2028	158.9495	5.865578
109.2362	158.9828	5.864132
109.2695	159.0159	5.862625
109.3028	159.0482	5.861132
109.3362	159.0816	5.859618
109.3695	159.1141	5.858174
109.4028	159.1479	5.856663
109.4362	159.1800	5.855121
109.4693	159.2139	5.853538
109.5027	159.2469	5.852080
109.5360	159.2815	5.850664
109.5693	159.3146	5.849324
109.6027	159.3474	5.847765
109.6360	159.3823	5.846184
109.6693	159.4158	5.844653
109.7026	159.4487	5.843115
109.7360	159.4820	5.841563
109.7693	159.5144	5.840030
109.8026	159.5480	5.838546
109.8360	159.5803	5.837005
109.8693	159.6136	5.835363
109.9026	159.6477	5.833873
109.9360	159.6814	5.832368
109.9693	159.7148	5.830824
110.0027	159.7473	5.829300
110.0360	159.7817	5.827686
110.0693	159.8148	5.826114
110.1027	159.8474	5.824386
110.1360	159.8804	5.822904
110.1693	159.9139	5.821382
110.2026	159.9475	5.819858
110.2360	159.9799	5.818355
110.2693	160.0132	5.816816
110.3026	160.0464	5.815200
110.3360	160.0798	5.813582
110.3693	160.1143	5.812024
110.4026	160.1466	5.810474
110.4360	160.1792	5.808871
110.4693	160.2122	5.807320
110.5025	160.2461	5.805740
110.5358	160.2788	5.804168
110.5695	160.3122	5.802546
110.6028	160.3460	5.800970
110.6362	160.3794	5.799408
110.6695	160.4130	5.797832
110.7028	160.4462	5.796250
110.7360	160.4800	5.794621
110.7693	160.5124	5.793002
110.8026	160.5462	5.791313
110.8360	160.5794	5.789799
110.8693	160.6110	5.788080
110.9026	160.6475	5.786429
110.9360	160.6823	5.784981
110.9693	160.7144	5.783316
111.0027	160.7471	5.781586
111.0360	160.7808	5.780011
111.0693	160.8145	5.778350
111.1027	160.8467	5.776688
111.1360	160.8811	5.775051
111.1693	160.9151	5.773340
111.2025	160.9485	5.771755
111.2358	160.9825	5.770130
111.2692	161.0160	5.768495
111.3025	161.0497	5.766812
111.3358	161.0830	5.765151
111.3692	161.1164	5.763448
111.4028	161.1500	5.761684
111.4362	161.1818	5.760002
111.4695	161.2153	5.758334
111.5028	161.2494	5.756586
111.5362	161.2831	5.754908
111.5695	161.3170	5.753294
111.6028	161.3504	5.751555
111.6362	161.3837	5.749848
111.6695	161.4171	5.748106
111.7026	161.4502	5.746399
111.7360	161.4824	5.744678
111.7702	161.5166	5.742950
111.8043	161.5517	5.741280
111.8377	161.5845	5.739612
111.8710	161.6171	5.737840
111.9043	161.6503	5.736186
111.9393	161.6856	5.734215
111.9743	161.7207	5.732212
112.0077	161.7537	5.730430
112.0410	161.7867	5.728620
112.0743	161.8211	5.726892
112.1077	161.8546	5.725199
112.1410	161.8886	5.723457
112.1743	161.9211	5.721650
112.2077	161.9553	5.719948
112.2410	161.9880	5.718272
112.2743	162.0215	5.716488
112.3077	162.0562	5.714786
112.3408	162.0895	5.713028
112.3742	162.1238	5.711203
112.4075	162.1574	5.709433
112.4408	162.1908	5.707662
112.4742	162.2249	5.705866
112.5075	162.2570	5.704060
112.5408	162.2893	5.702229
112.5745	162.3239	5.700407
112.6078	162.3568	5.698682
112.6412	162.3884	5.696887
112.6745	162.4200	5.695008
112.7078	162.4538	5.693164
112.7412	162.4863	5.691434
112.7745	162.5185	5.689482
112.8078	162.5524	5.687649
112.8410	162.5852	5.685880
112.8743	162.6184	5.684059
112.9077	162.6528	5.682245
112.9410	162.6866	5.680518
112.9743	162.7197	5.678687
113.0077	162.7525	5.676780
113.0410	162.7864	5.674884
113.0743	162.8195	5.673048
113.1077	162.8538	5.671217
113.1410	162.8882	5.669335
113.1743	162.9200	5.667524
113.2077	162.9542	5.665649
113.2410	162.9872	5.663758
113.2743	163.0210	5.661896
113.3077	163.0535	5.660010
113.3410	163.0860	5.658115
113.3743	163.1198	5.656205
113.4077	163.1536	5.654273
113.4410	163.1863	5.652343
113.4743	163.2205	5.650500
113.5077	163.2534	5.648645
113.5410	163.2879	5.646748
113.5743	163.3205	5.644812
113.6077	163.3549	5.642900
113.6410	163.3885	5.641044
113.6743	163.4219	5.639165
113.7077	163.4549	5.637293
113.7410	163.4876	5.635445
113.7743	163.5208	5.633454
113.8077	163.5544	5.631509
113.8410	163.5874	5.629658
113.8743	163.6204	5.627694
113.9077	163.6532	5.625710
113.9410	163.6871	5.623770
113.9743	163.7199	5.621839
114.0077	163.7526	5.619860
114.0410	163.7857	5.617890
114.0743	163.8190	5.615985
114.1077	163.8519	5.614087
114.1410	163.8830	5.612055
114.1743	163.9177	5.610070
114.2077	163.9515	5.608150
114.2410	163.9841	5.606204
114.2743	164.0182	5.604236
114.3077	164.0506	5.602313
114.3410	164.0846	5.600212
114.3743	164.1189	5.598248
114.4077	164.1516	5.596266
114.4410	164.1853	5.594320
114.4743	164.2183	5.592250
114.5077	164.2507	5.590174
114.5410	164.2844	5.588064
114.5743	164.3182	5.586143
114.6077	164.3524	5.584184
114.6410	164.3859	5.582207
114.6743	164.4182	5.580220
114.7077	164.4516	5.578200
114.7410	164.4851	5.576112
114.7743	164.5194	5.574076
114.8077	164.5519	5.572099
114.8410	164.5853	5.569972
114.8743	164.6190	5.567882
114.9077	164.6520	5.565922
114.9410	164.6862	5.563948
114.9752	164.7199	5.561890
115.0093	164.7537	5.559848
115.0427	164.7878	5.557871
115.0760	164.8216	5.555818
115.1093	164.8546	5.553716
115.1435	164.8890	5.551645
115.1776	164.9234	5.549607
115.2110	164.9559	5.547486
115.2443	164.9879	5.545395
115.2776	165.0215	5.543281
115.3118	165.0558	5.541180
115.3460	165.0899	5.539137
115.3793	165.1234	5.537037
115.4127	165.1572	5.534974
115.4460	165.1909	5.532830
115.4810	165.2256	5.530505
115.5160	165.2595	5.527997
115.5493	165.2938	5.525806
115.5827	165.3275	5.523796
115.6160	165.3606	5.521645
115.6502	165.3952	5.519539
115.6843	165.4299	5.517464
115.7177	165.4634	5.515356
115.7510	165.4980	5.513188
115.7842	165.5317	5.511084
115.8175	165.5631	5.508812
115.8512	165.5963	5.506514
115.8845	165.6304	5.504461
115.9178	165.6638	5.502421
115.9512	165.6963	5.500250
115.9845	165.7306	5.498101
116.0177	165.7636	5.495995
116.0510	165.7952	5.493804
116.0843	165.8290	5.491650
116.1177	165.8614	5.489520
116.1510	165.8950	5.487324
116.1843	165.9274	5.485120
116.2177	165.9603	5.482910
116.2510	165.9930	5.480710
116.2843	166.0258	5.478492
116.3177	166.0600	5.476274
116.3510	166.0939	5.474037
116.3843	166.1266	5.471826
116.4177	166.1591	5.469652
116.4510	166.1933	5.467426
116.4843	166.2269	5.465208
116.5177	166.2598	5.462950
116.5510	166.2938	5.460621
116.5843	166.3273	5.458440
116.6177	166.3618	5.456194
116.6510	166.3951	5.453967
116.6843	166.4279	5.451641
116.7177	166.4620	5.449234
116.7508	166.4956	5.447074
116.7842	166.5297	5.444834
116.8178	166.5629	5.442666
116.8512	166.5966	5.440348
116.8845	166.6301	5.438012
116.9178	166.6637	5.435678
116.9512	166.6974	5.433368
116.9845	166.7309	5.431139
117.0178	166.7627	5.428882
117.0510	166.7963	5.426464
117.0843	166.8297	5.424140
117.1177	166.8634	5.421860
117.1510	166.8974	5.419538
117.1843	166.9289	5.417218
117.2177	166.9617	5.414916
117.2510	166.9945	5.412572
117.2843	167.0279	5.410200
117.3177	167.0604	5.407890
117.3510	167.0943	5.405508
117.3843	167.1284	5.403112
117.4177	167.1619	5.400789
117.4510	167.1956	5.398465
117.4843	167.2288	5.396030
117.5177	167.2618	5.393645
117.5510	167.2941	5.391332
117.5843	167.3290	5.388969
117.6177	167.3624	5.386706
117.6510	167.3959	5.384277
117.6843	167.4291	5.381885
117.7177	167.4624	5.379585
117.7510	167.4968	5.377176
117.7842	167.5298	5.374738
117.8175	167.5633	5.372310
117.8508	167.5967	5.369880
117.8845	167.6307	5.367451
117.9178	167.6638	5.365034
117.9512	167.6974	5.362613
117.9845	167.7303	5.360190
118.0178	167.7634	5.357726
118.0512	167.7971	5.355305
118.0845	167.8304	5.352900
118.1177	167.8636	5.350420
118.1510	167.8978	5.347978
118.1843	167.9310	5.345605
118.2177	167.9642	5.343160
118.2510	167.9971	5.340626
118.2843	168.0304	5.338176
118.3177	168.0631	5.335740
118.3510	168.0967	5.333222
118.3843	168.1294	5.330753
118.4177	168.1626	5.328291
118.4510	168.1955	5.325756
118.4843	168.2287	5.323268
118.5177	168.2618	5.320776
118.5510	168.2944	5.318269
118.5843	168.3266	5.315834
118.6177	168.3596	5.313350
118.6510	168.3931	5.310828
118.6843	168.4266	5.308274
118.7177	168.4590	5.305754
118.7510	168.4912	5.303180
118.7843	168.5250	5.300620
118.8175	168.5586	5.298064
118.8508	168.5920	5.295506
118.8842	168.6250	5.292930
118.9175	168.6578	5.290368
118.9512	168.6920	5.287758
118.9845	168.7252	5.285222
119.0178	168.7575	5.282644
119.0512	168.7926	5.280118
119.0845	168.8240	5.277581
119.1178	168.8579	5.274991
119.1512	168.8912	5.272429
119.1845	168.9259	5.269802
119.2178	168.9584	5.267203
119.2512	168.9936	5.264592
119.2845	169.0270	5.262070
119.3178	169.0614	5.259484
119.3512	169.0950	5.256895
119.3845	169.1281	5.254205
119.4178	169.1615	5.251568
119.4512	169.1942	5.248954
119.4845	169.2286	5.246282
119.5178	169.2625	5.243701
119.5512	169.2959	5.241068
119.5845	169.3306	5.238438
119.6178	169.3641	5.235813
119.6512	169.3973	5.233204
119.6842	169.4304	5.230547
119.7175	169.4632	5.227850
119.7508	169.4975	5.225185
119.7842	169.5304	5.222512
119.8177	169.5641	5.219835
119.8510	169.5974	5.217170
119.8843	169.6301	5.214502
119.9177	169.6625	5.211760
119.9510	169.6961	5.209066
119.9843	169.7295	5.206371
120.0177	169.7627	5.203640
120.0510	169.7971	5.200955
120.0843	169.8304	5.198256
120.1177	169.8639	5.195545
120.1510	169.8961	5.192817
120.1843	169.9291	5.190081
120.2177	169.9627	5.187326
120.2510	169.9958	5.184612
120.2843	170.0295	5.181877
120.3177	170.0620	5.179113
120.3510	170.0951	5.176380
120.3843	170.1285	5.173660
120.4177	170.1624	5.170936
120.4510	170.1956	5.168164
120.4843	170.2276	5.165414
120.5177	170.2609	5.162668
120.5510	170.2938	5.159947
120.5843	170.3275	5.157150
120.6177	170.3604	5.154394
120.6510	170.3934	5.151656
120.6843	170.4262	5.148887
120.7177	170.4595	5.146084
120.7510	170.4920	5.143297
120.7843	170.5245	5.140459
120.8177	170.5570	5.137641
120.8510	170.5917	5.134814
120.8843	170.6252	5.132022
120.9177	170.6582	5.129206
120.9510	170.6921	5.126389
120.9843	170.7253	5.123560
121.0177	170.7592	5.120767
121.0510	170.7936	5.117950
121.0843	170.8275	5.115170
121.1177	170.8606	5.112344
121.1510	170.8936	5.109454
121.1843	170.9266	5.106594
121.2177	170.9606	5.103726
121.2510	170.9934	5.100856
121.2843	171.0265	5.097996
121.3178	171.0608	5.095123
121.3512	171.0937	5.092260
121.3845	171.1274	5.089356
121.4178	171.1598	5.086480
121.4512	171.1926	5.083560
121.4845	171.2270	5.080667
121.5178	171.2603	5.077786
121.5512	171.2938	5.074891
121.5845	171.3267	5.072063
121.6178	171.3594	5.069150
121.6512	171.3923	5.066239
121.6845	171.4254	5.063360
121.7178	171.4589	5.060449
121.7512	171.4926	5.057547
121.7845	171.5258	5.054607
121.8178	171.5596	5.051618
121.8512	171.5925	5.048724
121.8853	171.6268	5.045883
121.9195	171.6614	5.042934
121.9528	171.6958	5.039989
121.9862	171.7297	5.037094
122.0195	171.7624	5.034165
122.0533	171.7968	5.031150
122.0875	171.8309	5.028164
122.1208	171.8642	5.025180
122.1543	171.8991	5.022078
122.1877	171.9325	5.019039
122.2218	171.9668	5.016012
122.2560	172.0022	5.013000
122.2893	172.0356	5.010014
122.3227	172.0686	5.007002
122.3560	172.1024	5.003956
122.3910	172.1390	5.000484
122.4260	172.1732	4.997150
122.4593	172.2066	4.994188
122.4927	172.2410	4.991252
122.5260	172.2742	4.988388
122.5593	172.3078	4.985347
122.5927	172.3414	4.982283
122.6260	172.3761	4.979184
122.6593	172.4084	4.976056
122.6928	172.4424	4.973037
122.7270	172.4773	4.969988
122.7612	172.5114	4.966964
122.7945	172.5444	4.963900
122.8278	172.5774	4.960834
122.8612	172.6114	4.957652
122.8953	172.6452	4.954578
122.9295	172.6788	4.951516
122.9628	172.7124	4.948403
122.9962	172.7438	4.945291
123.0295	172.7791	4.942105
123.0625	172.8116	4.939030
123.0958	172.8435	4.935950
123.1292	172.8774	4.932828
123.1627	172.9099	4.929774
123.1960	172.9438	4.926694
123.2293	172.9767	4.923542
123.2627	173.0093	4.920370
123.2960	173.0419	4.917154
123.3293	173.0764	4.913996
123.3626	173.1094	4.910844
123.3960	173.1427	4.907681
123.4293	173.1766	4.904580
123.4627	173.2094	4.901496
123.4960	173.2426	4.898302
123.5293	173.2750	4.895058
123.5627	173.3089	4.891937
123.5960	173.3411	4.888847
123.6293	173.3736	4.885692
123.6627	173.4064	4.882517
123.6960	173.4395	4.879297
123.7293	173.4720	4.876068
123.7627	173.5068	4.872784
123.7960	173.5396	4.869665
123.8293	173.5727	4.866491
123.8625	173.6062	4.863258
123.8958	173.6404	4.859986
123.9292	173.6738	4.856774
123.9625	173.7076	4.853506
123.9958	173.7412	4.850275
124.0292	173.7754	4.847046
124.0625	173.8104	4.843847
124.0962	173.8436	4.840590
124.1295	173.8771	4.837282
124.1628	173.9109	4.833965
124.1962	173.9446	4.830645
124.2295	173.9762	4.827372
124.2628	174.0094	4.824104
124.2962	174.0434	4.820722
124.3295	174.0764	4.817483
124.3628	174.1092	4.814265
124.3962	174.1414	4.811004
124.4295	174.1736	4.807626
124.4628	174.2069	4.804278
124.4960	174.2401	4.801000
124.5293	174.2746	4.797728
124.5627	174.3079	4.794436
124.5960	174.3403	4.791043
124.6293	174.3749	4.787654
124.6627	174.4077	4.784328
124.6960	174.4404	4.780984
124.7293	174.4740	4.777644
124.7627	174.5088	4.774276
124.7960	174.5416	4.770890
124.8293	174.5747	4.767508
124.8626	174.6083	4.764050
124.8960	174.6421	4.760662
124.9293	174.6752	4.757277
124.9627	174.7078	4.753897
124.9960	174.7419	4.750511
125.0293	174.7746	4.747106
125.0627	174.8081	4.743710
125.0960	174.8408	4.740387
125.1293	174.8729	4.736988
125.1627	174.9043	4.733450
125.1958	174.9389	4.729979
125.2292	174.9721	4.726619
125.2625	175.0047	4.723205
125.2962	175.0381	4.719746
125.3295	175.0711	4.716296
125.3628	175.1032	4.712825
125.3962	175.1358	4.709363
125.4295	175.1684	4.705909
125.4628	175.2004	4.702440
125.4960	175.2328	4.698967
125.5293	175.2648	4.695450
125.5627	175.2972	4.692020
125.5960	175.3290	4.688590
125.6293	175.3612	4.685080
125.6627	175.3943	4.681594
125.6960	175.4279	4.678181
125.7293	175.4622	4.674718
125.7627	175.4949	4.671180
125.7960	175.5296	4.667688
125.8293	175.5630	4.664194
125.8626	175.5978	4.660647
125.8960	175.6311	4.657098
125.9310	175.6664	4.653100
125.9660	175.7005	4.649040
125.9993	175.7348	4.645480
126.0327	175.7685	4.641902
126.0660	175.8038	4.638431
126.1002	175.8380	4.634879
126.1343	175.8727	4.631296
126.1677	175.9061	4.627750
126.2010	175.9410	4.624130
126.2343	175.9738	4.620513
126.2685	176.0094	4.616930
126.3026	176.0453	4.613370
126.3360	176.0786	4.609762
126.3693	176.1134	4.606186
126.4026	176.1470	4.602560
126.4360	176.1800	4.598960
126.4693	176.2125	4.595306
126.5027	176.2465	4.591656
126.5360	176.2794	4.587993
126.5693	176.3124	4.584346
126.6027	176.3457	4.580656
126.6360	176.3786	4.576947
126.6693	176.4125	4.573316
126.7026	176.4466	4.569709
126.7360	176.4797	4.566078
126.7693	176.5125	4.562358
126.8026	176.5473	4.558702
126.8360	176.5804	4.555004
126.8693	176.6132	4.551272
126.9026	176.6470	4.547630
126.9360	176.6811	4.543964
126.9693	176.7146	4.540351
127.0027	176.7480	4.536600
127.0360	176.7814	4.532858
127.0693	176.8139	4.529103
127.1027	176.8475	4.525367
127.1360	176.8794	4.521663
127.1693	176.9125	4.517891
127.2026	176.9452	4.514131
127.2360	176.9789	4.510378
127.2693	177.0121	4.506640
127.3026	177.0453	4.502861
127.3360	177.0785	4.499103
127.3693	177.1107	4.495309
127.4026	177.1441	4.491527
127.4360	177.1784	4.487726
127.4693	177.2109	4.483914
127.5027	177.2462	4.480048
127.5360	177.2803	4.476303
127.5693	177.3141	4.472520
127.6027	177.3476	4.468716
127.6360	177.3815	4.464936
127.6693	177.4150	4.461064
127.7026	177.4487	4.457168
127.7360	177.4822	4.453302
127.7693	177.5159	4.449466
127.8026	177.5500	4.445613
127.8360	177.5843	4.441734
127.8693	177.6183	4.437874
127.9025	177.6528	4.433988
127.9358	177.6858	4.430108
127.9692	177.7195	4.426274
128.0025	177.7527	4.422351
128.0358	177.7859	4.418378
128.0695	177.8202	4.414480
128.1028	177.8534	4.410540
128.1362	177.8869	4.406544
128.1695	177.9206	4.402708
128.2028	177.9550	4.398903
128.2362	177.9883	4.394922
128.2695	178.0220	4.390957
128.3028	178.0551	4.386992
128.3362	178.0878	4.383047
128.3695	178.1201	4.379012
128.4028	178.1534	4.374989
128.4362	178.1862	4.371004
128.4693	178.2202	4.366994
128.5027	178.2532	4.363006
128.5360	178.2866	4.359010
128.5693	178.3187	4.355007
128.6026	178.3519	4.350950
128.6360	178.3856	4.346950
128.6693	178.4192	4.342926
128.7026	178.4518	4.338864
128.7360	178.4844	4.334822
128.7693	178.5172	4.330821
128.8027	178.5503	4.326838
128.8360	178.5830	4.322709
128.8693	178.6165	4.318525
128.9026	178.6498	4.314531
128.9360	178.6819	4.310412
128.9693	178.7135	4.306252
129.0025	178.7493	4.302146
129.0358	178.7810	4.298130
129.0692	178.8134	4.293979
129.1028	178.8485	4.289902
129.1362	178.8815	4.285891
129.1695	178.9142	4.281774
129.2028	178.9480	4.277670
129.2362	178.9802	4.273625
129.2695	179.0130	4.269434
129.3028	179.0458	4.265266
129.3362	179.0780	4.261090
129.3695	179.1112	4.256898
129.4028	179.1446	4.252716
129.4360	179.1785	4.248557
129.4702	179.2130	4.244464
129.5043	179.2481	4.240300
129.5377	179.2806	4.236087
129.5710	179.3151	4.231896
129.6044	179.3479	4.227660
129.6393	179.3831	4.222835
129.6743	179.4177	4.218129
129.7077	179.4504	4.213873
129.7410	179.4840	4.209615
129.7743	179.5180	4.205369
129.8085	179.5520	4.201188
129.8427	179.5858	4.196934
129.8760	179.6195	4.192705
129.9093	179.6528	4.188444
129.9427	179.6850	4.184185
129.9760	179.7184	4.179854
130.0093	179.7516	4.175586
130.0427	179.7855	4.171297
130.0760	179.8190	4.166984
130.1093	179.8523	4.162789
130.1427	179.8856	4.158474
130.1760	179.9194	4.154170
130.2093	179.9534	4.149915
130.2427	179.9873	4.145596
130.2760	180.0201	4.141232
130.3093	180.0534	4.136852
130.3427	180.0871	4.132448
130.3760	180.1201	4.128118
130.4093	180.1529	4.123750
130.4427	180.1869	4.119354
130.4760	180.2213	4.114975
130.5093	180.2544	4.110557
130.5427	180.2880	4.106133
130.5760	180.3217	4.101758
130.6093	180.3549	4.097345
130.6427	180.3880	4.092908
130.6760	180.4214	4.088547
130.7093	180.4547	4.084161
130.7427	180.4882	4.079737
130.7760	180.5207	4.075288
130.8093	180.5538	4.070855
130.8427	180.5871	4.066374
130.8760	180.6205	4.061877
130.9093	180.6531	4.057426
130.9427	180.6874	4.052885
130.9760	180.7191	4.048417
131.0093	180.7521	4.043878
131.0425	180.7852	4.039391
131.0758	180.8180	4.034922
131.1092	180.8515	4.030410
131.1428	180.8848	4.025852
131.1762	180.9174	4.021250
131.2095	180.9494	4.016687
131.2428	180.9827	4.012132
131.2762	181.0156	4.007577
131.3095	181.0488	4.003042
131.3428	181.0820	3.998448
131.3762	181.1161	3.993939
131.4093	181.1497	3.989289
131.4427	181.1839	3.984653
131.4760	181.2174	3.980106
131.5094	181.2513	3.975565
131.5427	181.2844	3.971029
131.5760	181.3162	3.966280
131.6093	181.3514	3.961629
131.6427	181.3850	3.956980
131.6760	181.4189	3.952405
131.7094	181.4515	3.947664
131.7427	181.4848	3.943008
131.7760	181.5193	3.938428
131.8093	181.5523	3.933732
131.8427	181.5864	3.929078
131.8760	181.6199	3.924374
131.9093	181.6539	3.919756
131.9427	181.6872	3.915055
131.9758	181.7211	3.910448
132.0092	181.7535	3.905685
132.0425	181.7868	3.900922
132.0758	181.8206	3.896222
132.1092	181.8543	3.891510
132.1425	181.8874	3.886719
132.1762	181.9222	3.881930
132.2095	181.9562	3.877246
132.2428	181.9884	3.872447
132.2762	182.0234	3.867564
132.3095	182.0577	3.862931
132.3428	182.0891	3.858162
132.3762	182.1223	3.853246
132.4095	182.1568	3.848388
132.4428	182.1909	3.843655
132.4762	182.2245	3.838867
132.5094	182.2571	3.833968
132.5427	182.2911	3.829112
132.5760	182.3231	3.824283
132.6093	182.3557	3.819336
132.6427	182.3884	3.814339
132.6760	182.4230	3.809454
132.7094	182.4547	3.804776
132.7427	182.4870	3.800006
132.7760	182.5212	3.795162
132.8093	182.5534	3.790334
132.8435	182.5866	3.785454
132.8777	182.6203	3.780508
132.9110	182.6528	3.775595
132.9442	182.6862	3.770604
132.9775	182.7201	3.765680
133.0120	182.7542	3.760826
133.0462	182.7884	3.755870
133.0795	182.8218	3.750910
133.1128	182.8552	3.745988
133.1462	182.8888	3.740989
133.1812	182.9244	3.735378
133.2162	182.9602	3.729797
133.2495	182.9934	3.724808
133.2828	183.0272	3.719784
133.3160	183.0609	3.714753
133.3502	183.0953	3.709756
133.3844	183.1288	3.704784
133.4177	183.1615	3.699618
133.4510	183.1948	3.694550
133.4843	183.2280	3.689473
133.5185	183.2614	3.684506
133.5527	183.2958	3.679439
133.5860	183.3302	3.674414
133.6194	183.3626	3.669413
133.6526	183.3973	3.664260
133.6868	183.4308	3.659113
133.7210	183.4650	3.654000
133.7544	183.4989	3.648944
133.7875	183.5323	3.643824
133.8208	183.5656	3.638678
133.8550	183.5994	3.633571
133.8895	183.6342	3.628434
133.9228	183.6670	3.623248
133.9562	183.7009	3.618024
133.9895	183.7338	3.612868
134.0245	183.7694	3.607063
134.0595	183.8050	3.601239
134.0928	183.8374	3.596017
134.1260	183.8707	3.590804
134.1593	183.9044	3.585617
134.1927	183.9388	3.580383
134.2260	183.9722	3.575107
134.2594	184.0059	3.569863
134.2927	184.0388	3.564676
134.3260	184.0730	3.559466
134.3602	184.1065	3.554260
134.3944	184.1401	3.549075
134.4277	184.1731	3.543830
134.4610	184.2059	3.538570
134.4944	184.2394	3.533255
134.5285	184.2739	3.527976
134.5627	184.3084	3.522675
134.5960	184.3410	3.517404
134.6294	184.3744	3.512078
134.6627	184.4086	3.506736
134.6968	184.4414	3.501433
134.7310	184.4748	3.496116
134.7644	184.5078	3.490730
134.7977	184.5413	3.485394
134.8310	184.5759	3.480083
134.8660	184.6098	3.474080
134.9008	184.6453	3.468013
134.9342	184.6794	3.462676
134.9675	184.7117	3.457318
135.0008	184.7453	3.451882
135.0350	184.7795	3.446597
135.0692	184.8121	3.441204
135.1025	184.8449	3.435715
135.1362	184.8782	3.430325
135.1695	184.9121	3.424858
135.2028	184.9459	3.419416
135.2362	184.9789	3.413989
135.2695	185.0128	3.408530
135.3028	185.0452	3.403101
135.3362	185.0788	3.397642
135.3703	185.1123	3.392198
135.4045	185.1459	3.386718
135.4378	185.1794	3.381222
135.4712	185.2128	3.375726
135.5045	185.2463	3.370249
135.5395	185.2808	3.364005
135.5745	185.3167	3.357806
135.6078	185.3494	3.352286
135.6410	185.3828	3.346746
135.6743	185.4155	3.341138
135.7085	185.4496	3.335608
135.7427	185.4831	3.330040
135.7760	185.5174	3.324457
135.8093	185.5498	3.318924
135.8427	185.5829	3.313338
135.8760	185.6160	3.307726
135.9093	185.6496	3.302167
135.9427	185.6820	3.296561
135.9760	185.7157	3.290897
136.0094	185.7491	3.285287
136.0435	185.7838	3.279618
136.0776	185.8178	3.273944
136.1110	185.8509	3.268265
136.1442	185.8848	3.262586
136.1775	185.9187	3.256952
136.2108	185.9532	3.251289
136.2445	185.9856	3.245566
136.2778	186.0196	3.239818
136.3112	186.0538	3.234030
136.3445	186.0875	3.228284
136.3778	186.1215	3.222588
136.4112	186.1544	3.216939
136.4445	186.1887	3.211158
136.4776	186.2235	3.205436
136.5110	186.2569	3.199695
136.5443	186.2909	3.193889
136.5776	186.3237	3.188140
136.6110	186.3570	3.182396
136.6444	186.3907	3.176648
136.6777	186.4237	3.170865
136.7110	186.4565	3.165040
136.7444	186.4899	3.159209
136.7776	186.5234	3.153459
136.8110	186.5568	3.147650
136.8444	186.5901	3.141846
136.8777	186.6227	3.136028
136.9110	186.6558	3.130192
136.9444	186.6893	3.124359
136.9776	186.7215	3.118470
137.0110	186.7541	3.112543
137.0443	186.7882	3.106680
137.0776	186.8216	3.100778
137.1110	186.8546	3.094881
137.1444	186.8878	3.089012
137.1777	186.9208	3.083085
137.2108	186.9542	3.077134
137.2442	186.9879	3.071218
137.2775	187.0208	3.065318
137.3108	187.0551	3.059336
137.3442	187.0884	3.053348
137.3778	187.1217	3.047404
137.4112	187.1561	3.041491
137.4445	187.1889	3.035524
137.4778	187.2203	3.029378
137.5112	187.2556	3.023428
137.5445	187.2892	3.017478
137.5778	187.3210	3.011504
137.6112	187.3551	3.005508
137.6445	187.3884	2.999490
137.6778	187.4216	2.993374
137.7112	187.4540	2.987271
137.7445	187.4874	2.981202
137.7778	187.5198	2.975156
137.8112	187.5532	2.969075
137.8445	187.5866	2.962948
137.8778	187.6209	2.956902
137.9112	187.6536	2.950850
137.9445	187.6866	2.944717
137.9778	187.7195	2.938578
138.0112	187.7532	2.932470
138.0445	187.7869	2.926330
138.0778	187.8202	2.920188
138.1112	187.8534	2.914057
138.1445	187.8862	2.907906
138.1778	187.9195	2.901692
138.2112	187.9527	2.895512
138.2445	187.9858	2.889334
138.2778	188.0182	2.883092
138.3112	188.0514	2.876870
138.3445	188.0844	2.870631
138.3778	188.1180	2.864424
138.4112	188.1509	2.858272
138.4445	188.1834	2.852043
138.4778	188.2162	2.845765
138.5112	188.2494	2.839500
138.5445	188.2830	2.833225
138.5775	188.3190	2.827003
138.6108	188.3534	2.820794
138.6442	188.3887	2.814528
138.6775	188.4241	2.808234
138.7108	188.4581	2.801966
138.7444	188.4925	2.795685
138.7776	188.5264	2.789320
138.8110	188.5606	2.782958
138.8444	188.5939	2.776652
138.8777	188.6265	2.770280
138.9110	188.6601	2.763896
138.9444	188.6914	2.757475
138.9776	188.7252	2.751096
139.0110	188.7579	2.744752
139.0443	188.7897	2.738350
139.0776	188.8236	2.731938
139.1110	188.8570	2.725519
139.1444	188.8896	2.719118
139.1777	188.9232	2.712688
139.2110	188.9556	2.706245
139.2452	188.9892	2.699819
139.2793	189.0232	2.693363
139.3127	189.0562	2.686953
139.3462	189.0891	2.680518
139.3795	189.1217	2.674021
139.4145	189.1574	2.666748
139.4495	189.1908	2.659491
139.4827	189.2246	2.652952
139.5160	189.2587	2.646444
139.5493	189.2924	2.639968
139.5835	189.3274	2.633430
139.6177	189.3608	2.626900
139.6510	189.3947	2.620343
139.6843	189.4283	2.613818
139.7177	189.4614	2.607242
139.7510	189.4948	2.600694
139.7843	189.5284	2.594074
139.8177	189.5617	2.587355
139.8510	189.5952	2.580714
139.8844	189.6283	2.574214
139.9184	189.6634	2.567715
139.9525	189.6974	2.561172
139.9862	189.7313	2.554459
140.0195	189.7644	2.547812
140.0528	189.7976	2.541133
140.0870	189.8314	2.534510
140.1212	189.8656	2.527899
140.1545	189.8982	2.521281
140.1878	189.9309	2.514524
140.2212	189.9648	2.507823
140.2562	190.0004	2.500344
140.2912	190.0358	2.492870
140.3245	190.0686	2.486280
140.3578	190.1018	2.479597
140.3912	190.1342	2.472826
140.4245	190.1681	2.466072
140.4578	190.2020	2.459314
140.4912	190.2344	2.452580
140.5245	190.2668	2.445863
140.5575	190.2995	2.439146
140.5925	190.3337	2.432398
140.6275	190.3696	2.425519
140.6610	190.4034	2.418805
140.6944	190.4362	2.412096
140.7276	190.4682	2.405373
140.7610	190.5011	2.398506
140.7943	190.5348	2.391711
140.8276	190.5675	2.384884
140.8610	190.6009	2.378058
140.8944	190.6345	2.371253
140.9285	190.6691	2.364395
140.9626	190.7037	2.357555
140.9960	190.7374	2.350762
141.0293	190.7709	2.343916
141.0627	190.8035	2.337060
141.0977	190.8389	2.329340
141.1327	190.8733	2.321636
141.1660	190.9062	2.314789
141.1994	190.9384	2.307767
141.2327	190.9716	2.300898
141.2668	191.0069	2.293977
141.3010	191.0430	2.287219
141.3344	191.0764	2.280284
141.3677	191.1088	2.273334
141.4010	191.1429	2.266469
141.4343	191.1759	2.259500
141.4677	191.2083	2.252487
141.5012	191.2423	2.245542
141.5345	191.2761	2.238586
141.5678	191.3093	2.231630
141.6020	191.3440	2.224641
141.6362	191.3782	2.217628
141.6695	191.4114	2.210634
141.7028	191.4466	2.203632
141.7362	191.4778	2.196675
141.7703	191.5121	2.189569
141.8045	191.5460	2.182499
141.8378	191.5800	2.175512
141.8712	191.6136	2.168509
141.9045	191.6473	2.161483
141.9386	191.6810	2.154400
141.9725	191.7161	2.147330
142.0058	191.7492	2.140254
142.0392	191.7837	2.133262
142.0726	191.8178	2.126216
142.1060	191.8517	2.119118
142.1394	191.8849	2.112022
142.1727	191.9192	2.105010
142.2060	191.9516	2.097916
142.2394	191.9853	2.090708
142.2726	192.0182	2.083583
142.3060	192.0514	2.076520
142.3394	192.0841	2.069395
142.3727	192.1183	2.062242
142.4060	192.1502	2.055106
142.4394	192.1844	2.047895
142.4727	192.2176	2.040845
142.5060	192.2500	2.033735
142.5395	192.2840	2.026549
142.5728	192.3174	2.019356
142.6062	192.3499	2.012169
142.6395	192.3830	2.004977
142.6728	192.4174	1.997818
142.7062	192.4495	1.990574
142.7392	192.4834	1.983291
142.7725	192.5178	1.976139
142.8058	192.5491	1.969058
142.8392	192.5824	1.961732
142.8725	192.6168	1.954439
142.9060	192.6494	1.947219
142.9394	192.6820	1.939970
142.9727	192.7148	1.932694
143.0060	192.7484	1.925373
143.0394	192.7823	1.918023
143.0726	192.8160	1.910697
143.1060	192.8484	1.903444
143.1394	192.8832	1.896195
143.1727	192.9160	1.888936
143.2060	192.9484	1.881670
143.2394	192.9819	1.874374
143.2726	193.0151	1.867056
143.3060	193.0484	1.859722
143.3394	193.0819	1.852380
143.3727	193.1146	1.845029
143.4060	193.1467	1.837692
143.4394	193.1798	1.830319
143.4727	193.2124	1.822894
143.5060	193.2464	1.815527
143.5395	193.2794	1.808206
143.5728	193.3130	1.800877
143.6062	193.3474	1.793474
143.6395	193.3802	1.786106
143.6728	193.4139	1.778706
143.7062	193.4475	1.771284
143.7395	193.4801	1.763826
143.7728	193.5137	1.756449
143.8062	193.5466	1.749077
143.8395	193.5797	1.741665
143.8728	193.6136	1.734285
143.9062	193.6464	1.726931
143.9395	193.6791	1.719436
143.9728	193.7128	1.711940
144.0062	193.7461	1.704498
144.0395	193.7798	1.696937
144.0726	193.8128	1.689442
144.1060	193.8468	1.681958
144.1394	193.8806	1.674505
144.1727	193.9147	1.667002
144.2060	193.9490	1.659488
144.2394	193.9816	1.651979
144.2726	194.0151	1.644455
144.3060	194.0476	1.636931
144.3394	194.0825	1.629339
144.3727	194.1152	1.621864
144.4060	194.1492	1.614354
144.4394	194.1827	1.606909
144.4727	194.2170	1.599413
144.5060	194.2505	1.591883
144.5394	194.2849	1.584321
144.5726	194.3170	1.576757
144.6060	194.3501	1.569115
144.6394	194.3839	1.561570
144.6727	194.4184	1.554025
144.7060	194.4522	1.546458
144.7394	194.4847	1.538900
144.7726	194.5176	1.531302
144.8068	194.5511	1.522770
144.8410	194.5858	1.514250
144.8743	194.6204	1.506738
144.9077	194.6534	1.499169
144.9410	194.6856	1.491480
144.9752	194.7198	1.483772
145.0094	194.7560	1.476297
145.0427	194.7882	1.468748
145.0760	194.8215	1.461060
145.1093	194.8524	1.453359
145.1427	194.8862	1.445707
145.1760	194.9183	1.438108
145.2094	194.9525	1.430469
145.2427	194.9866	1.422876
145.2760	195.0188	1.415370
145.3102	195.0527	1.407584
145.3444	195.0862	1.399880
145.3777	195.1195	1.392296
145.4110	195.1534	1.384638
145.4444	195.1864	1.377009
145.4785	195.2199	1.369334
145.5127	195.2541	1.361590
145.5462	195.2888	1.353908
145.5795	195.3209	1.346286
145.6128	195.3542	1.338585
145.6478	195.3893	1.329916
145.6828	195.4233	1.321273
145.7162	195.4575	1.313616
145.7495	195.4900	1.305869
145.7828	195.5229	1.298110
145.8170	195.5578	1.290440
145.8512	195.5913	1.282726
145.8845	195.6256	1.275031
145.9178	195.6594	1.267340
145.9512	195.6932	1.259657
145.9845	195.7266	1.251951
146.0178	195.7607	1.244250
146.0512	195.7935	1.236519
146.0845	195.8276	1.228776
146.1178	195.8612	1.221013
146.1520	195.8948	1.213262
146.1862	195.9296	1.205525
146.2195	195.9615	1.197813
146.2528	195.9940	1.189950
146.2862	196.0276	1.182235
146.3203	196.0618	1.174608
146.3545	196.0954	1.166957
146.3875	196.1282	1.159154
146.4208	196.1622	1.151358
146.4542	196.1959	1.143598
146.4885	196.2306	1.135818
146.5226	196.2649	1.127987
146.5560	196.2973	1.120219
146.5894	196.3311	1.112450
146.6227	196.3632	1.104660
146.6577	196.3996	1.095895
146.6927	196.4354	1.087262
146.7260	196.4684	1.079490
146.7594	196.5022	1.071741
146.7927	196.5350	1.063957
146.8262	196.5687	1.056178
146.8595	196.6023	1.048462
146.8928	196.6358	1.040686
146.9262	196.6688	1.032879
146.9595	196.7020	1.025124
146.9936	196.7380	1.017393
147.0275	196.7710	1.009618
147.0608	196.8046	1.001867
147.0942	196.8374	0.9941674
147.1277	196.8713	0.9862985
147.1610	196.9040	0.9784179
147.1944	196.9374	0.9705421
147.2276	196.9716	0.9628028
147.2610	197.0038	0.9551147
147.2943	197.0358	0.9472103
147.3276	197.0692	0.9394243
147.3610	197.1027	0.9316599
147.3944	197.1373	0.9240162
147.4277	197.1712	0.9163618
147.4610	197.2037	0.9085859
147.4944	197.2367	0.9006705
147.5276	197.2692	0.8929047
147.5610	197.3015	0.8851882
147.5944	197.3340	0.8773975
147.6278	197.3672	0.8696024
147.6612	197.4015	0.8618137
147.6945	197.4344	0.8541095
147.7278	197.4672	0.8463250
147.7612	197.5008	0.8385163
147.7945	197.5339	0.8306985
147.8278	197.5680	0.8229637
147.8612	197.6017	0.8152100
147.8945	197.6349	0.8074124
147.9278	197.6677	0.7996088
147.9612	197.7011	0.7918281
147.9945	197.7346	0.7840066
148.0278	197.7688	0.7762226
148.0612	197.8028	0.7685560
148.0945	197.8366	0.7608655
148.1278	197.8706	0.7531048
148.1612	197.9035	0.7453516
148.1945	197.9349	0.7374122
148.2278	197.9687	0.7295857
148.2608	198.0017	0.7218472
148.2942	198.0351	0.7140982
148.3275	198.0683	0.7063816
148.3608	198.1022	0.6986808
148.3944	198.1354	0.6909301
148.4277	198.1694	0.6832339
148.4610	198.2022	0.6755122
148.4944	198.2365	0.6677362
148.5276	198.2685	0.6601150
148.5610	198.3023	0.6523383
148.5944	198.3356	0.6446196
148.6277	198.3691	0.6368844
148.6610	198.4013	0.6291149
148.6944	198.4341	0.6213646
148.7276	198.4671	0.6137401
148.7610	198.5000	0.6061020
148.7943	198.5343	0.5984020
148.8276	198.5664	0.5907622
148.8610	198.6004	0.5830932
148.8944	198.6333	0.5754239
148.9278	198.6666	0.5676808
148.9612	198.7007	0.5600990
148.9945	198.7336	0.5525156
149.0278	198.7668	0.5448492
149.0612	198.8000	0.5372043
149.0942	198.8327	0.5296238
149.1275	198.8654	0.5220297
149.1610	198.8982	0.5144562
149.1944	198.9316	0.5068900
149.2276	198.9664	0.4992866
149.2610	199.0001	0.4917238
149.2943	199.0338	0.4841653
149.3276	199.0672	0.4766232
149.3610	199.1009	0.4691120
149.3944	199.1335	0.4616072
149.4277	199.1667	0.4540734
149.4612	199.2006	0.4465736
149.4945	199.2341	0.4391176
149.5278	199.2668	0.4316484
149.5612	199.3006	0.4241496
149.5942	199.3347	0.4166590
149.6275	199.3675	0.4092185
149.6610	199.4012	0.4018040
149.6944	199.4347	0.3944242
149.7276	199.4695	0.3870258
149.7610	199.5028	0.3796170
149.7943	199.5372	0.3722524
149.8276	199.5708	0.3649722
149.8610	199.6045	0.3577047
149.8944	199.6386	0.3504732
149.9277	199.6715	0.3432512
149.9610	199.7053	0.3360006
149.9944	199.7381	0.3287872
150.0278	199.7716	0.3216055
150.0612	199.8046	0.3144719
150.0945	199.8382	0.3073628
150.1278	199.8717	0.3003949
150.1612	199.9050	0.2934444
150.1950	199.9391	0.2865562
150.2292	199.9713	0.2796438
150.2627	200.0051	0.2728659
150.2960	200.0383	0.2661434
150.3294	200.0714	0.2594306
150.3635	200.1056	0.2528027
150.3976	200.1408	0.2462654
150.4310	200.1746	0.2399079
150.4644	200.2069	0.2336193
150.4977	200.2408	0.2274318
150.5328	200.2759	0.2206768
150.5678	200.3108	0.2140251
150.6012	200.3439	0.2082867
150.6345	200.3768	0.2026035
150.6675	200.4098	0.1970523
150.7016	200.4442	0.1916011
150.7360	200.4780	0.1862378
150.7694	200.5107	0.1808725
150.8027	200.5433	0.1756567
150.8360	200.5778	0.1705648
150.8694	200.6112	0.1655582
150.9026	200.6444	0.1605875
150.9360	200.6782	0.1556769
150.9694	200.7111	0.1507932
151.0027	200.7448	0.1460342
151.0370	200.7796	0.1413245
151.0712	200.8129	0.1366432
151.1045	200.8470	0.1320220
151.1378	200.8794	0.1274919
151.1708	200.9120	0.1229746
151.2050	200.9451	0.1185246
151.2394	200.9793	0.1141168
151.2726	201.0129	0.1097334
151.3060	201.0443	0.1054193
151.3394	201.0782	0.1011668
151.3743	201.1127	0.09646619
151.4093	201.1481	0.09185389
151.4427	201.1816	0.08782806
151.4760	201.2148	0.08375090
151.5094	201.2467	0.07979190
151.5428	201.2798	0.07598534
151.5762	201.3133	0.07219040
151.6095	201.3480	0.06843452
151.6428	201.3815	0.06470478
151.6762	201.4149	0.06102534
151.7103	201.4504	0.05743318
151.7445	201.4855	0.05391749
151.7775	201.5199	0.05049239
151.8108	201.5528	0.04708641
151.8442	201.5856	0.04378538
151.8777	201.6198	0.04055634
151.9110	201.6532	0.03746187
151.9444	201.6859	0.03440992
151.9776	201.7207	0.03145202
152.0110	201.7533	0.02860108
152.0443	201.7862	0.02582790
152.0776	201.8196	0.02316951
152.1110	201.8522	0.02058681
152.1444	201.8852	0.01813253
152.1777	201.9180	0.01575287
152.2112	201.9518	0.01348106
152.2445	201.9870	0.01144323
152.2778	202.0207	.009414540
152.3112	202.0555	.007456756
152.3442	202.0889	.005613135
152.3775	202.1208	.003900848
152.4110	202.1531	.002305299
152.4444	202.1866	8.89650E-4
152.4776	202.2201	-3.3033E-4
152.5110	202.2521	-1.4808E-3
152.5443	202.2842	-2.5047E-3
152.5776	202.3174	-3.1436E-3
152.6110	202.3510	-3.6474E-3
152.6444	202.3844	-3.9835E-3
152.6777	202.4178	-4.1459E-3
152.7110	202.4504	-4.2026E-3
152.7444	202.4838	-4.3265E-3
152.7776	202.5171	-4.3742E-3
152.8110	202.5492	-4.5476E-3
152.8444	202.5841	-4.6046E-3
152.8778	202.6167	-4.5850E-3
152.9112	202.6500	-4.5578E-3
152.9445	202.6851	-4.5963E-3
152.9778	202.7181	-4.6028E-3
153.0112	202.7530	-4.6437E-3
153.0442	202.7861	-4.6739E-3
153.0775	202.8187	-4.7317E-3
153.1108	202.8532	-4.7641E-3
153.1444	202.8866	-4.8720E-3
153.1777	202.9199	-4.8331E-3
153.2110	202.9539	-4.7938E-3
153.2444	202.9874	-4.7790E-3
153.2776	203.0219	-4.7791E-3
153.3110	203.0530	-4.8187E-3
153.3444	203.0868	-4.9118E-3
153.3777	203.1216	-4.9007E-3
153.4110	203.1533	-4.8271E-3
153.4444	203.1846	-4.9225E-3
153.4776	203.2185	-4.9799E-3
153.5110	203.2510	-4.9993E-3
153.5443	203.2844	-4.9969E-3
153.5776	203.3191	-5.0056E-3
153.6110	203.3524	-5.0064E-3
153.6444	203.3859	-4.9934E-3
153.6777	203.4199	-5.0121E-3
153.7110	203.4524	-5.0964E-3
153.7444	203.4856	-5.1179E-3
153.7778	203.5188	-5.0823E-3
153.8112	203.5530	-5.0814E-3
153.8445	203.5862	-5.0830E-3
153.8778	203.6193	-5.1288E-3
153.9112	203.6521	-5.2453E-3
153.9445	203.6861	-5.2458E-3
153.9778	203.7191	-5.2809E-3
154.0108	203.7527	-5.1851E-3
154.0442	203.7857	-5.2649E-3
154.0775	203.8209	-5.1947E-3
154.1108	203.8533	-5.0909E-3
154.1442	203.8859	-5.2362E-3
154.1777	203.9196	-5.2881E-3
154.2110	203.9520	-5.2854E-3
154.2444	203.9859	-5.3240E-3
154.2776	204.0179	-5.3476E-3
154.3110	204.0512	-5.3518E-3
154.3444	204.0852	-5.3376E-3
154.3777	204.1189	-5.3782E-3
154.4110	204.1516	-5.3789E-3
154.4444	204.1850	-5.3776E-3
154.4776	204.2184	-5.3669E-3
154.5110	204.2516	-5.3432E-3
154.5443	204.2848	-5.3454E-3
154.5776	204.3179	-5.3859E-3
154.6110	204.3523	-5.3453E-3
154.6444	204.3851	-5.3845E-3
154.6777	204.4191	-5.4278E-3
154.7110	204.4514	-5.4969E-3
154.7452	204.4856	-5.4890E-3
154.7793	204.5194	-5.5088E-3
154.8127	204.5539	-5.5114E-3
154.8460	204.5871	-5.4924E-3
154.8794	204.6210	-5.4424E-3
154.9137	204.6550	-5.3921E-3
154.9478	204.6884	-5.4780E-3
154.9812	204.7225	-5.5955E-3
155.0145	204.7568	-5.6121E-3
155.0478	204.7902	-5.5642E-3
155.0820	204.8248	-5.5525E-3
155.1162	204.8575	-5.6201E-3
155.1492	204.8902	-5.6805E-3
155.1825	204.9233	-5.7298E-3
155.2158	204.9574	-5.7500E-3
155.2510	204.9926	-5.7016E-3
155.2860	205.0272	-5.6969E-3
155.3194	205.0597	-5.7466E-3
155.3526	205.0929	-5.8112E-3
155.3860	205.1272	-5.7936E-3
155.4193	205.1598	-5.8800E-3
155.4526	205.1919	-5.9482E-3
155.4860	205.2255	-6.0109E-3
155.5194	205.2597	-5.9107E-3
155.5527	205.2942	-5.8525E-3
155.5868	205.3294	-5.8085E-3
155.6210	205.3633	-5.8017E-3
155.6543	205.3973	-5.7390E-3
155.6877	205.4306	-5.7668E-3
155.7210	205.4641	-5.7825E-3
155.7560	205.5000	-5.7053E-3
155.7910	205.5335	-5.7302E-3
155.8245	205.5675	-5.7695E-3
155.8578	205.6016	-5.7327E-3
155.8912	205.6347	-5.7757E-3
155.9254	205.6680	-5.8570E-3
155.9595	205.7023	-5.9703E-3
155.9928	205.7349	-5.9906E-3
156.0262	205.7688	-5.9769E-3
156.0595	205.8012	-5.9608E-3
156.0937	205.8356	-5.9988E-3
156.1278	205.8711	-6.0003E-3
156.1608	205.9042	-5.9675E-3
156.1942	205.9375	-6.0108E-3
156.2275	205.9714	-5.9241E-3
156.2618	206.0042	-5.9018E-3
156.2960	206.0386	-6.0552E-3
156.3294	206.0722	-6.0836E-3
156.3627	206.1059	-6.0524E-3
156.3960	206.1399	-6.0958E-3
156.4294	206.1722	-6.0604E-3
156.4626	206.2053	-6.1218E-3
156.4960	206.2384	-6.1637E-3
156.5293	206.2716	-6.1867E-3
156.5627	206.3044	-6.2075E-3
156.5960	206.3374	-6.1682E-3
156.6294	206.3712	-6.1722E-3
156.6627	206.4043	-6.2527E-3
156.6960	206.4364	-6.2338E-3
156.7294	206.4702	-6.1500E-3
156.7627	206.5022	-6.1094E-3
156.7960	206.5362	-6.1881E-3
156.8294	206.5703	-6.2925E-3
156.8627	206.6052	-6.3231E-3
156.8960	206.6397	-6.2722E-3
156.9295	206.6726	-6.2443E-3
156.9628	206.7054	-6.2916E-3
156.9962	206.7379	-6.3591E-3
157.0295	206.7712	-6.3756E-3
157.0628	206.8050	-6.4098E-3
157.0962	206.8383	-6.4175E-3
157.1295	206.8722	-6.3956E-3
157.1628	206.9056	-6.4120E-3
157.1962	206.9387	-6.3822E-3
157.2292	206.9727	-6.3209E-3
157.2625	207.0058	-6.3228E-3
157.2958	207.0385	-6.3126E-3
157.3292	207.0714	-6.2859E-3
157.3625	207.1036	-6.3573E-3
157.3958	207.1370	-6.4271E-3
157.4292	207.1709	-6.4015E-3
157.4625	207.2051	-6.3487E-3
157.4958	207.2371	-6.3860E-3
157.5292	207.2709	-6.4462E-3
157.5625	207.3051	-6.5345E-3
157.5958	207.3391	-6.5570E-3
157.6292	207.3739	-6.5110E-3
157.6625	207.4063	-6.4049E-3
157.6958	207.4387	-6.4906E-3
157.7292	207.4722	-6.5364E-3
157.7625	207.5054	-6.4717E-3
157.7958	207.5385	-6.5242E-3
157.8292	207.5712	-6.5004E-3
157.8625	207.6056	-6.5420E-3
157.8958	207.6386	-6.5686E-3
157.9292	207.6717	-6.5793E-3
157.9626	207.7037	-6.6342E-3
157.9960	207.7365	-6.6598E-3
158.0293	207.7702	-6.6901E-3
158.0627	207.8039	-6.6781E-3
158.0960	207.8381	-6.6779E-3
158.1294	207.8709	-6.6674E-3
158.1627	207.9052	-6.7097E-3
158.1960	207.9383	-6.5944E-3
158.2294	207.9719	-6.5623E-3
158.2627	208.0057	-6.5250E-3
158.2960	208.0390	-6.5625E-3
158.3294	208.0728	-6.5951E-3
158.3627	208.1058	-6.6034E-3
158.3960	208.1395	-6.6322E-3
158.4294	208.1736	-6.6171E-3
158.4626	208.2080	-6.6191E-3
158.4960	208.2412	-6.6298E-3
158.5293	208.2740	-6.6375E-3
158.5627	208.3085	-6.6673E-3
158.5960	208.3406	-6.6169E-3
158.6294	208.3747	-6.6454E-3
158.6627	208.4071	-6.6498E-3
158.6960	208.4405	-6.6657E-3
158.7294	208.4748	-6.6214E-3
158.7627	208.5068	-6.6759E-3
158.7960	208.5402	-6.7493E-3
158.8294	208.5736	-6.7594E-3
158.8627	208.6072	-6.7157E-3
158.8960	208.6396	-6.7707E-3
158.9294	208.6734	-6.7920E-3
158.9626	208.7061	-6.7258E-3
158.9960	208.7386	-6.7106E-3
159.0293	208.7721	-6.6911E-3
159.0627	208.8045	-6.6923E-3
159.0960	208.8373	-6.7269E-3
159.1294	208.8702	-6.7148E-3
159.1627	208.9039	-6.7376E-3
159.1960	208.9380	-6.7574E-3
159.2294	208.9702	-6.7296E-3
159.2627	209.0021	-6.7463E-3
159.2960	209.0370	-6.7539E-3
159.3294	209.0696	-6.7143E-3
159.3627	209.1041	-6.7043E-3
159.3962	209.1374	-6.6431E-3
159.4295	209.1701	-6.6612E-3
159.4637	209.2040	-6.6775E-3
159.4978	209.2389	-6.7098E-3
159.5312	209.2724	-6.6684E-3
159.5645	209.3060	-6.7103E-3
159.5978	209.3396	-6.7800E-3
159.6320	209.3731	-6.7875E-3
159.6662	209.4073	-6.9487E-3
159.6995	209.4416	-6.9592E-3
159.7328	209.4753	-6.8595E-3
159.7662	209.5089	-6.8160E-3
159.8004	209.5430	-6.8021E-3
159.8345	209.5782	-6.8122E-3
159.8678	209.6112	-6.8008E-3
159.9012	209.6443	-6.8367E-3
159.9345	209.6780	-6.8536E-3
159.9687	209.7124	-6.8219E-3
160.0028	209.7458	-6.7565E-3
160.0362	209.7781	-6.7128E-3
160.0695	209.8112	-6.7710E-3
160.1028	209.8438	-6.8133E-3
160.1358	209.8776	-6.8614E-3
160.1692	209.9118	-6.7566E-3
160.2025	209.9456	-6.5987E-3
160.2358	209.9779	-6.5626E-3
160.2692	210.0111	-6.6186E-3
160.3025	210.0451	-6.6526E-3
160.3358	210.0795	-6.6390E-3
160.3692	210.1148	-6.5611E-3
160.4026	210.1482	-6.5461E-3
160.4360	210.1829	-6.5992E-3
160.4694	210.2180	-6.6170E-3
160.5027	210.2523	-6.5873E-3
160.5360	210.2868	-6.6055E-3
160.5694	210.3203	-6.6192E-3
160.6026	210.3546	-6.6949E-3
160.6360	210.3899	-6.6315E-3
160.6693	210.4238	-6.6117E-3
160.7026	210.4575	-6.5835E-3
160.7360	210.4911	-6.6172E-3
160.7694	210.5254	-6.6827E-3
160.8027	210.5583	-6.7107E-3
160.8360	210.5920	-6.7732E-3
160.8694	210.6265	-6.7590E-3
160.9026	210.6594	-6.7858E-3
160.9360	210.6938	-6.7625E-3
160.9694	210.7288	-6.7564E-3
161.0027	210.7636	-6.7100E-3
161.0360	210.7971	-6.6776E-3
161.0694	210.8298	-6.6514E-3
161.1026	210.8644	-6.7144E-3
161.1360	210.8984	-6.6698E-3
161.1693	210.9317	-6.6746E-3
161.2026	210.9670	-6.7034E-3
161.2360	211.0009	-6.6430E-3
161.2694	211.0335	-6.7077E-3
161.3027	211.0677	-6.7350E-3
161.3360	211.1003	-6.7120E-3
161.3694	211.1339	-6.7132E-3
161.4026	211.1675	-6.6439E-3
161.4360	211.2012	-6.6216E-3
161.4694	211.2344	-6.6123E-3
161.5027	211.2672	-6.5791E-3
161.5360	211.3004	-6.5702E-3
161.5694	211.3314	-6.6738E-3
161.6026	211.3650	-6.7170E-3
161.6360	211.3982	-6.6116E-3
161.6693	211.4307	-6.6647E-3
161.7026	211.4634	-6.7085E-3
161.7360	211.4959	-6.6421E-3
161.7694	211.5274	-6.6689E-3
161.8027	211.5607	-6.6670E-3
161.8360	211.5934	-6.5980E-3
161.8694	211.6253	-6.6337E-3
161.9026	211.6573	-6.7064E-3
161.9360	211.6907	-6.7720E-3
161.9694	211.7234	-6.7596E-3
162.0027	211.7559	-6.6995E-3
162.0360	211.7890	-6.7228E-3
162.0694	211.8217	-6.7550E-3
162.1026	211.8551	-6.6686E-3
162.1360	211.8872	-6.6231E-3
162.1693	211.9206	-6.6212E-3
162.2026	211.9542	-6.6834E-3
162.2360	211.9872	-6.7520E-3
162.2694	212.0203	-6.7074E-3
162.3027	212.0525	-6.6497E-3
162.3360	212.0858	-6.5999E-3
162.3694	212.1179	-6.5995E-3
162.4026	212.1498	-6.6854E-3
162.4360	212.1827	-6.7287E-3
162.4694	212.2147	-6.7103E-3
162.5027	212.2475	-6.7310E-3
162.5360	212.2803	-6.7504E-3
162.5694	212.3122	-6.7189E-3
162.6026	212.3452	-6.6628E-3
162.6360	212.3780	-6.6730E-3
162.6693	212.4105	-6.6987E-3
162.7026	212.4439	-6.6719E-3
162.7358	212.4770	-6.6369E-3
162.7692	212.5091	-6.6606E-3
162.8025	212.5425	-6.7120E-3
162.8358	212.5762	-6.7061E-3
162.8692	212.6084	-6.7123E-3
162.9025	212.6426	-6.7816E-3
162.9358	212.6760	-6.6978E-3
162.9695	212.7095	-6.7653E-3
163.0028	212.7426	-6.7792E-3
163.0362	212.7747	-6.8647E-3
163.0695	212.8086	-6.8865E-3
163.1028	212.8424	-6.7954E-3
163.1362	212.8760	-6.8031E-3
163.1695	212.9097	-6.7686E-3
163.2028	212.9432	-6.7288E-3
163.2362	212.9747	-6.8354E-3
163.2695	213.0083	-6.9059E-3
163.3028	213.0416	-6.8144E-3
163.3362	213.0748	-6.8001E-3
163.3695	213.1074	-6.7705E-3
163.4028	213.1411	-6.8788E-3
163.4362	213.1758	-6.8807E-3
163.4695	213.2098	-6.7405E-3
163.5028	213.2428	-6.7598E-3
163.5362	213.2767	-6.8173E-3
163.5695	213.3113	-6.8143E-3
163.6028	213.3448	-6.8093E-3
163.6362	213.3774	-6.8174E-3
163.6693	213.4110	-6.7914E-3
163.7026	213.4461	-6.7878E-3
163.7360	213.4787	-6.6806E-3
163.7694	213.5112	-6.7113E-3
163.8027	213.5441	-6.8444E-3
163.8360	213.5776	-6.9342E-3
163.8694	213.6118	-6.8356E-3
163.9026	213.6444	-6.8107E-3
163.9360	213.6780	-6.9058E-3
163.9694	213.7114	-6.8827E-3
164.0027	213.7457	-6.8497E-3
164.0360	213.7785	-6.7851E-3
164.0694	213.8119	-6.8179E-3
164.1028	213.8444	-6.9208E-3
164.1362	213.8769	-6.9747E-3
164.1695	213.9101	-6.9656E-3
164.2028	213.9437	-6.9377E-3
164.2362	213.9766	-6.9633E-3
164.2695	214.0115	-6.9722E-3
164.3028	214.0446	-6.9212E-3
164.3362	214.0772	-6.9153E-3
164.3695	214.1109	-6.9310E-3
164.4028	214.1448	-6.9683E-3
164.4362	214.1757	-7.0409E-3
164.4695	214.2111	-7.0688E-3
164.5028	214.2442	-6.9943E-3
164.5362	214.2781	-6.9702E-3
164.5695	214.3125	-6.9112E-3
164.6028	214.3458	-6.9279E-3
164.6362	214.3796	-6.9619E-3
164.6695	214.4126	-7.0445E-3
164.7028	214.4474	-7.0618E-3
164.7362	214.4797	-6.9959E-3
164.7695	214.5128	-7.1042E-3
164.8028	214.5462	-7.0985E-3
164.8362	214.5800	-7.0458E-3
164.8695	214.6138	-6.9908E-3
164.9028	214.6464	-6.9805E-3
164.9362	214.6807	-7.0370E-3
164.9695	214.7136	-7.0438E-3
165.0028	214.7461	-7.0178E-3
165.0362	214.7796	-7.0618E-3
165.0695	214.8134	-7.0989E-3
165.1028	214.8457	-7.0839E-3
165.1362	214.8788	-7.1206E-3
165.1695	214.9110	-7.0837E-3
165.2025	214.9423	-7.0450E-3
165.2358	214.9756	-7.0707E-3
165.2692	215.0078	-7.1562E-3
165.3027	215.0404	-7.1806E-3
165.3360	215.0733	-7.2109E-3
165.3694	215.1085	-7.1002E-3
165.4026	215.1398	-7.0168E-3
165.4360	215.1726	-7.1046E-3
165.4694	215.2064	-7.1516E-3
165.5027	215.2397	-7.1382E-3
165.5360	215.2736	-7.1146E-3
165.5694	215.3062	-7.1259E-3
165.6026	215.3396	-7.1734E-3
165.6360	215.3726	-7.1342E-3
165.6693	215.4058	-7.2305E-3
165.7026	215.4395	-7.2795E-3
165.7360	215.4736	-7.1828E-3
165.7694	215.5064	-7.1355E-3
165.8027	215.5394	-7.2281E-3
165.8360	215.5724	-7.2561E-3
165.8702	215.6064	-7.2613E-3
165.9043	215.6407	-7.2732E-3
165.9377	215.6744	-7.3103E-3
165.9710	215.7070	-7.3559E-3
166.0044	215.7409	-7.4163E-3
166.0387	215.7748	-7.4543E-3
166.0728	215.8104	-7.4414E-3
166.1062	215.8437	-7.3746E-3
166.1395	215.8794	-7.3379E-3
166.1728	215.9130	-7.1833E-3
166.2078	215.9476	-7.1862E-3
166.2428	215.9822	-7.2737E-3
166.2762	216.0156	-7.2717E-3
166.3092	216.0490	-7.2386E-3
166.3425	216.0812	-7.2571E-3
166.3766	216.1162	-7.2357E-3
166.4108	216.1510	-7.2051E-3
166.4442	216.1846	-7.1738E-3
166.4775	216.2189	-7.2736E-3
166.5108	216.2535	-7.3645E-3
166.5442	216.2890	-7.3694E-3
166.5775	216.3222	-7.4498E-3
166.6112	216.3577	-7.4053E-3
166.6445	216.3926	-7.3931E-3
166.6778	216.4268	-7.3797E-3
166.7112	216.4604	-7.3876E-3
166.7445	216.4944	-7.3428E-3
166.7778	216.5286	-7.3379E-3
166.8112	216.5627	-7.3539E-3
166.8444	216.5956	-7.4115E-3
166.8777	216.6277	-7.4201E-3
166.9110	216.6610	-7.4338E-3
166.9444	216.6932	-7.5394E-3
166.9776	216.7264	-7.5631E-3
167.0110	216.7588	-7.5690E-3
167.0443	216.7917	-7.5411E-3
167.0776	216.8239	-7.5139E-3
167.1110	216.8567	-7.5377E-3
167.1444	216.8888	-7.5463E-3
167.1777	216.9228	-7.5545E-3
167.2110	216.9570	-7.5560E-3
167.2444	216.9890	-7.5200E-3
167.2776	217.0235	-7.5519E-3
167.3110	217.0560	-7.5490E-3
167.3444	217.0890	-7.5752E-3
167.3777	217.1213	-7.6500E-3
167.4110	217.1531	-7.7370E-3
167.4444	217.1871	-7.7309E-3
167.4775	217.2215	-7.7041E-3
167.5108	217.2551	-7.7062E-3
167.5442	217.2903	-7.7628E-3
167.5775	217.3244	-7.6850E-3
167.6108	217.3570	-7.6335E-3
167.6442	217.3901	-7.6880E-3
167.6775	217.4241	-7.6104E-3
167.7108	217.4566	-7.6164E-3
167.7442	217.4880	-7.6596E-3
167.7775	217.5207	-7.6908E-3
167.8108	217.5533	-7.6980E-3
167.8442	217.5864	-7.6658E-3
167.8777	217.6188	-7.6858E-3
167.9110	217.6524	-7.6945E-3
167.9444	217.6857	-7.6751E-3
167.9776	217.7183	-7.6893E-3
168.0110	217.7521	-7.7783E-3
168.0443	217.7841	-7.7127E-3
168.0776	217.8166	-7.7876E-3
168.1110	217.8507	-7.7370E-3
168.1444	217.8836	-7.7199E-3
168.1777	217.9160	-7.6854E-3
168.2110	217.9497	-7.6535E-3
168.2444	217.9824	-7.6949E-3
168.2776	218.0160	-7.7320E-3
168.3110	218.0482	-7.8007E-3
168.3444	218.0805	-7.8688E-3
168.3777	218.1133	-7.8698E-3
168.4110	218.1474	-7.8477E-3
168.4444	218.1833	-7.7003E-3
168.4776	218.2174	-7.6271E-3
168.5110	218.2508	-7.6756E-3
168.5443	218.2833	-7.7754E-3
168.5776	218.3168	-7.8508E-3
168.6110	218.3500	-7.8547E-3
168.6444	218.3833	-7.8423E-3
168.6777	218.4180	-7.8111E-3
168.7110	218.4512	-7.8704E-3
168.7444	218.4852	-7.8388E-3
168.7776	218.5195	-7.7552E-3
168.8110	218.5524	-7.7298E-3
168.8444	218.5862	-7.7224E-3
168.8777	218.6202	-7.6938E-3
168.9110	218.6524	-7.7313E-3
168.9444	218.6848	-7.8104E-3
168.9776	218.7189	-7.8680E-3
169.0110	218.7528	-7.8890E-3
169.0443	218.7855	-7.9014E-3
169.0776	218.8195	-7.9413E-3
169.1110	218.8520	-7.9718E-3
169.1444	218.8861	-7.9490E-3
169.1777	218.9195	-7.9306E-3
169.2110	218.9537	-7.8869E-3
169.2452	218.9879	-7.8328E-3
169.2793	219.0210	-7.8470E-3
169.3127	219.0534	-7.8568E-3
169.3460	219.0872	-7.8455E-3
169.3794	219.1204	-7.7871E-3
169.4144	219.1544	-7.8264E-3
169.4494	219.1900	-7.8235E-3
169.4826	219.2222	-7.7920E-3
169.5160	219.2542	-7.7976E-3
169.5494	219.2876	-7.8388E-3
169.5835	219.3222	-7.8522E-3
169.6176	219.3562	-7.9133E-3
169.6510	219.3894	-7.9166E-3
169.6844	219.4236	-7.9465E-3
169.7176	219.4586	-7.9055E-3
169.7518	219.4931	-7.8783E-3
169.7860	219.5277	-7.8657E-3
169.8194	219.5611	-7.8473E-3
169.8526	219.5950	-7.8610E-3
169.8860	219.6281	-7.8877E-3
169.9193	219.6632	-7.9364E-3
169.9526	219.6956	-7.8763E-3
169.9860	219.7294	-7.9128E-3
170.0194	219.7628	-7.8296E-3
170.0525	219.7956	-7.7868E-3
170.0867	219.8308	-7.8288E-3
170.1208	219.8650	-7.8729E-3
170.1542	219.8983	-7.8048E-3
170.1875	219.9305	-7.7553E-3
170.2208	219.9636	-7.7817E-3
170.2550	219.9970	-7.7795E-3
170.2895	220.0308	-7.7992E-3
170.3228	220.0646	-7.8472E-3
170.3562	220.0982	-7.8524E-3
170.3895	220.1325	-7.8498E-3
170.4245	220.1660	-7.7600E-3
170.4595	220.2003	-7.8614E-3
170.4928	220.2340	-7.8558E-3
170.5262	220.2678	-7.7969E-3
170.5595	220.3007	-7.7046E-3
170.5928	220.3336	-7.6256E-3
170.6260	220.3670	-7.7882E-3
170.6594	220.3998	-7.7578E-3
170.6927	220.4341	-7.7525E-3
170.7260	220.4686	-7.7481E-3
170.7602	220.5010	-7.6562E-3
170.7943	220.5352	-7.6932E-3
170.8276	220.5684	-7.6505E-3
170.8610	220.6011	-7.6575E-3
170.8944	220.6345	-7.6964E-3
170.9285	220.6686	-7.7498E-3
170.9626	220.7027	-7.8472E-3
170.9960	220.7356	-7.9110E-3
171.0293	220.7695	-7.9046E-3
171.0627	220.8025	-7.8274E-3
171.0977	220.8371	-7.7397E-3
171.1326	220.8722	-7.7901E-3
171.1660	220.9049	-7.8102E-3
171.1994	220.9384	-7.8116E-3
171.2326	220.9724	-7.8082E-3
171.2677	221.0070	-7.7809E-3
171.3027	221.0412	-7.7514E-3
171.3360	221.0752	-7.8066E-3
171.3694	221.1080	-7.8324E-3
171.4026	221.1394	-7.8188E-3
171.4360	221.1722	-7.8283E-3
171.4694	221.2058	-7.8128E-3
171.5027	221.2386	-7.7653E-3
171.5360	221.2717	-7.7966E-3
171.5694	221.3032	-7.8959E-3
171.6035	221.3390	-7.9387E-3
171.6377	221.3740	-7.8567E-3
171.6710	221.4079	-7.7929E-3
171.7044	221.4420	-7.7921E-3
171.7377	221.4746	-7.7570E-3
171.7710	221.5071	-7.8485E-3
171.8044	221.5410	-7.9052E-3
171.8376	221.5751	-7.8698E-3
171.8710	221.6067	-7.8551E-3
171.9043	221.6428	-7.8785E-3
171.9377	221.6751	-7.7392E-3
171.9710	221.7086	-7.7331E-3
172.0044	221.7416	-7.7667E-3
172.0377	221.7738	-7.8767E-3
172.0710	221.8078	-7.9013E-3
172.1042	221.8410	-7.8582E-3
172.1375	221.8748	-7.8759E-3
172.1708	221.9090	-7.8490E-3
172.2042	221.9424	-7.7496E-3
172.2375	221.9765	-7.6444E-3
172.2708	222.0082	-7.7027E-3
172.3042	222.0430	-7.7091E-3
172.3375	222.0766	-7.6536E-3
172.3708	222.1098	-7.7231E-3
172.4042	222.1436	-7.7815E-3
172.4375	222.1776	-7.7573E-3
172.4710	222.2110	-7.7413E-3
172.5044	222.2450	-7.8016E-3
172.5377	222.2785	-7.8687E-3
172.5710	222.3112	-7.8095E-3
172.6044	222.3446	-7.7350E-3
172.6377	222.3777	-7.7184E-3
172.6710	222.4112	-7.7078E-3
172.7044	222.4457	-7.6648E-3
172.7377	222.4786	-7.5603E-3
172.7710	222.5114	-7.6345E-3
172.8044	222.5447	-7.7755E-3
172.8376	222.5779	-7.7690E-3
172.8710	222.6115	-7.7487E-3
172.9043	222.6450	-7.7112E-3
172.9377	222.6781	-7.6891E-3
172.9710	222.7121	-7.6890E-3
173.0044	222.7446	-7.6852E-3
173.0377	222.7774	-7.7309E-3
173.0710	222.8108	-7.7839E-3
173.1044	222.8448	-7.7645E-3
173.1375	222.8778	-7.7768E-3
173.1708	222.9110	-7.7323E-3
173.2042	222.9439	-7.7870E-3
173.2375	222.9761	-7.8347E-3
173.2708	223.0098	-7.8560E-3
173.3045	223.0439	-7.9149E-3
173.3378	223.0768	-7.9594E-3
173.3712	223.1112	-7.9193E-3
173.4045	223.1434	-7.8107E-3
173.4378	223.1763	-7.8335E-3
173.4712	223.2100	-7.8038E-3
173.5045	223.2427	-7.7691E-3
173.5378	223.2761	-7.8209E-3
173.5712	223.3093	-7.8297E-3
173.6045	223.3430	-7.8586E-3
173.6378	223.3764	-7.8582E-3
173.6712	223.4104	-7.8585E-3
173.7045	223.4429	-7.8262E-3
173.7378	223.4775	-7.8332E-3
173.7712	223.5107	-7.8132E-3
173.8045	223.5430	-7.8166E-3
173.8378	223.5764	-7.8609E-3
173.8712	223.6102	-7.9244E-3
173.9045	223.6450	-7.9141E-3
173.9378	223.6776	-7.9282E-3
173.9712	223.7105	-7.9590E-3
174.0045	223.7445	-7.9480E-3
174.0378	223.7773	-7.9908E-3
174.0712	223.8129	-7.9830E-3
174.1045	223.8453	-7.8281E-3
174.1378	223.8784	-7.8480E-3
174.1712	223.9127	-7.8495E-3
174.2045	223.9454	-7.8103E-3
174.2378	223.9787	-7.8757E-3
174.2712	224.0129	-7.9393E-3
174.3045	224.0469	-7.9607E-3
174.3378	224.0790	-7.9744E-3
174.3712	224.1124	-8.0143E-3
174.4045	224.1468	-7.9832E-3
174.4378	224.1806	-7.9213E-3
174.4712	224.2123	-7.8901E-3
174.5045	224.2464	-7.9739E-3
174.5375	224.2782	-7.9443E-3
174.5708	224.3113	-7.9345E-3
174.6042	224.3443	-7.8727E-3
174.6375	224.3776	-7.8783E-3
174.6708	224.4112	-7.9393E-3
174.7042	224.4452	-7.8911E-3
174.7377	224.4786	-7.7704E-3
174.7710	224.5116	-7.7625E-3
174.8052	224.5451	-7.8220E-3
174.8394	224.5776	-7.9277E-3
174.8727	224.6114	-7.9797E-3
174.9058	224.6442	-7.9300E-3
174.9392	224.6777	-7.9102E-3
174.9742	224.7122	-7.9052E-3
175.0092	224.7478	-7.8376E-3
175.0425	224.7809	-7.8393E-3
175.0758	224.8128	-7.8937E-3
175.1092	224.8464	-7.9732E-3
175.1433	224.8810	-8.0342E-3
175.1775	224.9163	-8.0276E-3
175.2108	224.9490	-7.9652E-3
175.2442	224.9826	-7.8677E-3
175.2775	225.0152	-7.7937E-3
175.3108	225.0486	-7.8854E-3
175.3442	225.0816	-7.8857E-3
175.3775	225.1148	-7.9407E-3
175.4108	225.1471	-7.9472E-3
175.4442	225.1808	-7.9592E-3
175.4787	225.2141	-8.0073E-3
175.5128	225.2500	-8.0708E-3
175.5462	225.2838	-7.9642E-3
175.5795	225.3159	-7.9393E-3
175.6128	225.3496	-8.0268E-3
175.6470	225.3837	-8.0596E-3
175.6812	225.4182	-8.0821E-3
175.7145	225.4516	-8.0379E-3
175.7478	225.4850	-8.0202E-3
175.7810	225.5182	-8.0353E-3
175.8160	225.5535	-7.9917E-3
175.8510	225.5881	-8.0064E-3
175.8844	225.6214	-8.0183E-3
175.9176	225.6546	-8.0192E-3
175.9510	225.6877	-8.0356E-3
175.9844	225.7202	-8.0848E-3
176.0177	225.7540	-8.0993E-3
176.0510	225.7874	-8.1102E-3
176.0844	225.8214	-8.1403E-3
176.1176	225.8551	-8.1914E-3
176.1518	225.8906	-8.1308E-3
176.1860	225.9246	-8.0885E-3
176.2194	225.9587	-8.0280E-3
176.2527	225.9911	-8.0338E-3
176.2860	226.0262	-8.0754E-3
176.3202	226.0608	-7.9741E-3
176.3544	226.0939	-8.0136E-3
176.3877	226.1276	-8.0338E-3
176.4210	226.1621	-8.0986E-3
176.4544	226.1958	-8.0911E-3
176.4894	226.2312	-8.0934E-3
176.5244	226.2664	-8.0608E-3
176.5576	226.2992	-8.0624E-3
176.5910	226.3332	-8.1247E-3
176.6244	226.3662	-8.1221E-3
176.6585	226.3998	-8.0846E-3
176.6927	226.4335	-8.1043E-3
176.7260	226.4672	-8.1103E-3
176.7594	226.5010	-8.0958E-3
176.7926	226.5338	-8.1025E-3
176.8268	226.5679	-8.0777E-3
176.8610	226.6039	-8.0893E-3
176.8944	226.6370	-8.1293E-3
176.9277	226.6706	-8.1537E-3
176.9610	226.7037	-8.0805E-3
176.9944	226.7366	-8.0936E-3
177.0276	226.7696	-8.1772E-3
177.0610	226.8040	-8.2502E-3
177.0944	226.8375	-8.1631E-3
177.1277	226.8704	-8.1161E-3
177.1610	226.9043	-8.1156E-3
177.1944	226.9368	-8.0496E-3
177.2276	226.9703	-8.0272E-3
177.2610	227.0025	-8.1324E-3
177.2943	227.0364	-8.1261E-3
177.3276	227.0694	-8.1147E-3
177.3610	227.1024	-8.0777E-3
177.3944	227.1342	-8.0968E-3
177.4277	227.1680	-8.1621E-3
177.4610	227.2022	-8.1590E-3
177.4944	227.2344	-8.0414E-3
177.5276	227.2661	-8.0814E-3
177.5610	227.3004	-8.1399E-3
177.5944	227.3338	-8.0946E-3
177.6277	227.3663	-8.0872E-3
177.6610	227.3984	-8.0924E-3
177.6944	227.4323	-8.0938E-3
177.7276	227.4664	-8.0643E-3
177.7610	227.5009	-8.0388E-3
177.7943	227.5337	-8.0760E-3
177.8276	227.5675	-8.1176E-3
177.8610	227.6004	-8.0331E-3
177.8944	227.6344	-7.9934E-3
177.9277	227.6669	-8.0280E-3
177.9610	227.6994	-8.0749E-3
177.9944	227.7320	-8.1045E-3
178.0275	227.7660	-8.1154E-3
178.0608	227.7992	-8.1306E-3
178.0942	227.8328	-8.1491E-3
178.1275	227.8675	-8.0845E-3
178.1608	227.9006	-8.0176E-3
178.1942	227.9348	-8.0607E-3
178.2275	227.9694	-8.1282E-3
178.2608	228.0036	-8.1376E-3
178.2942	228.0370	-8.1608E-3
178.3278	228.0710	-8.2056E-3
178.3612	228.1034	-8.2112E-3
178.3945	228.1370	-8.2068E-3
178.4278	228.1707	-8.1772E-3
178.4612	228.2036	-8.1801E-3
178.4945	228.2360	-8.2090E-3
178.5278	228.2710	-8.2196E-3
178.5612	228.3033	-8.1393E-3
178.5945	228.3366	-8.2226E-3
178.6278	228.3708	-8.1732E-3
178.6612	228.4044	-8.1121E-3
178.6945	228.4384	-8.1870E-3
178.7278	228.4718	-8.1947E-3
178.7612	228.5056	-8.2058E-3
178.7945	228.5395	-8.2918E-3
178.8276	228.5727	-8.3432E-3
178.8610	228.6056	-8.3467E-3
178.8944	228.6382	-8.3147E-3
178.9277	228.6711	-8.2964E-3
178.9610	228.7042	-8.2252E-3
178.9944	228.7373	-8.2624E-3
179.0276	228.7715	-8.2825E-3
179.0610	228.8056	-8.2262E-3
179.0944	228.8391	-8.2161E-3
179.1277	228.8724	-8.1776E-3
179.1610	228.9049	-8.1587E-3
179.1944	228.9382	-8.1672E-3
179.2276	228.9712	-8.2396E-3
179.2610	229.0039	-8.3123E-3
179.2943	229.0369	-8.3544E-3
179.3276	229.0703	-8.4163E-3
179.3610	229.1038	-8.3559E-3
179.3944	229.1389	-8.1528E-3
179.4277	229.1704	-8.0700E-3
179.4610	229.2037	-8.2387E-3
179.4944	229.2358	-8.2733E-3
179.5276	229.2688	-8.2999E-3
179.5610	229.3010	-8.3461E-3
179.5944	229.3338	-8.4163E-3
179.6277	229.3676	-8.3686E-3
179.6610	229.3997	-8.3787E-3
179.6944	229.4333	-8.4664E-3
179.7275	229.4672	-8.3868E-3
179.7608	229.4993	-8.3899E-3
179.7942	229.5323	-8.3992E-3
179.8275	229.5660	-8.3677E-3
179.8608	229.6006	-8.2983E-3
179.8942	229.6331	-8.1507E-3
179.9275	229.6662	-8.1987E-3
179.9608	229.6998	-8.2486E-3
179.9942	229.7338	-8.2170E-3
180.0275	229.7665	-8.2528E-3
180.0608	229.8000	-8.2812E-3
180.0942	229.8337	-8.2904E-3
180.1275	229.8662	-8.2995E-3
180.1608	229.8990	-8.3008E-3
180.1944	229.9318	-8.3259E-3
180.2276	229.9660	-8.3448E-3
180.2610	229.9987	-8.3663E-3
180.2943	230.0318	-8.3171E-3
180.3276	230.0658	-8.3311E-3
180.3610	230.0990	-8.3548E-3
180.3944	230.1318	-8.3632E-3
180.4277	230.1653	-8.4056E-3
180.4610	230.1992	-8.4063E-3
180.4944	230.2322	-8.4188E-3
180.5276	230.2659	-8.4062E-3
180.5610	230.2996	-8.4396E-3
180.5944	230.3344	-8.4376E-3
180.6277	230.3672	-8.4170E-3
180.6610	230.4000	-8.5058E-3
180.6944	230.4338	-8.4531E-3
180.7276	230.4670	-8.5182E-3
180.7610	230.5016	-8.5144E-3
180.7943	230.5342	-8.4570E-3
180.8276	230.5674	-8.5065E-3
180.8610	230.6006	-8.5534E-3
180.8944	230.6344	-8.5979E-3
180.9277	230.6686	-8.6563E-3
180.9610	230.7012	-8.6958E-3
180.9944	230.7346	-8.6914E-3
181.0276	230.7694	-8.7536E-3
181.0610	230.8040	-8.7131E-3
181.0944	230.8388	-8.6778E-3
181.1277	230.8732	-8.6955E-3
181.1610	230.9084	-8.6754E-3
181.1944	230.9417	-8.6218E-3
181.2276	230.9742	-8.6443E-3
181.2610	231.0071	-8.6909E-3
181.2943	231.0412	-8.6458E-3
181.3276	231.0734	-8.6180E-3
181.3610	231.1071	-8.5990E-3
181.3944	231.1396	-8.5761E-3
181.4277	231.1726	-8.4828E-3
181.4610	231.2055	-8.5382E-3
181.4944	231.2382	-8.5378E-3
181.5276	231.2710	-8.5328E-3
181.5610	231.3051	-8.5026E-3
181.5944	231.3378	-8.4973E-3
181.6277	231.3706	-8.5655E-3
181.6610	231.4047	-8.5440E-3
181.6944	231.4378	-8.4809E-3
181.7278	231.4701	-8.5184E-3
181.7612	231.5043	-8.5564E-3
181.7945	231.5381	-8.5462E-3
181.8278	231.5728	-8.5366E-3
181.8612	231.6060	-8.5056E-3
181.8945	231.6386	-8.5006E-3
181.9278	231.6710	-8.5502E-3
181.9612	231.7038	-8.5862E-3
181.9945	231.7369	-8.5963E-3
182.0278	231.7697	-8.5306E-3
182.0612	231.8033	-8.4798E-3
182.0945	231.8355	-8.4544E-3
182.1278	231.8690	-8.5045E-3
182.1612	231.9016	-8.4690E-3
182.1945	231.9337	-8.4251E-3
182.2278	231.9672	-8.4677E-3
182.2608	232.0001	-8.4887E-3
182.2942	232.0329	-8.4891E-3
182.3275	232.0661	-8.4929E-3
182.3608	232.0996	-8.4272E-3
182.3942	232.1323	-8.4479E-3
182.4275	232.1661	-8.4608E-3
182.4608	232.2000	-8.4384E-3
182.4942	232.2337	-8.3817E-3
182.5275	232.2662	-8.4466E-3
182.5608	232.2998	-8.5093E-3
182.5942	232.3336	-8.4755E-3
182.6275	232.3665	-8.4615E-3
182.6608	232.3997	-8.4587E-3
182.6942	232.4328	-8.4624E-3
182.7275	232.4664	-8.5481E-3
182.7608	232.5006	-8.4876E-3
182.7942	232.5316	-8.4006E-3
182.8278	232.5651	-8.4783E-3
182.8612	232.5987	-8.5214E-3
182.8945	232.6324	-8.4526E-3
182.9278	232.6646	-8.3856E-3
182.9612	232.6975	-8.4331E-3
182.9945	232.7306	-8.4493E-3
183.0278	232.7629	-8.5176E-3
183.0620	232.7984	-8.5048E-3
183.0962	232.8314	-8.4436E-3
183.1295	232.8644	-8.4410E-3
183.1628	232.8975	-8.4620E-3
183.1962	232.9308	-8.4627E-3
183.2303	232.9655	-8.4551E-3
183.2645	232.9994	-8.4909E-3
183.2978	233.0342	-8.4642E-3
183.3312	233.0672	-8.4484E-3
183.3645	233.1008	-8.4732E-3
183.3995	233.1372	-8.4535E-3
183.4345	233.1732	-8.4321E-3
183.4678	233.2076	-8.4285E-3
183.5012	233.2415	-8.4265E-3
183.5345	233.2756	-8.3773E-3
183.5685	233.3089	-8.3851E-3
183.6026	233.3432	-8.3959E-3
183.6360	233.3776	-8.4045E-3
183.6693	233.4112	-8.4235E-3
183.7026	233.4448	-8.4027E-3
183.7368	233.4789	-8.4199E-3
183.7710	233.5134	-8.4258E-3
183.8044	233.5464	-8.4128E-3
183.8376	233.5788	-8.4407E-3
183.8710	233.6116	-8.5124E-3
183.9060	233.6496	-8.4546E-3
183.9410	233.6847	-8.1927E-3
183.9744	233.7162	-8.2164E-3
184.0076	233.7488	-8.4147E-3
184.0412	233.7818	-8.4026E-3
184.0753	233.8161	-8.3953E-3
184.1095	233.8501	-8.4098E-3
184.1428	233.8832	-8.3747E-3
184.1762	233.9164	-8.3414E-3
184.2095	233.9495	-8.3629E-3
184.2437	233.9838	-8.3818E-3
184.2778	234.0167	-8.3365E-3
184.3112	234.0511	-8.3522E-3
184.3445	234.0846	-8.3396E-3
184.3778	234.1203	-8.3705E-3
184.4120	234.1548	-8.1935E-3
184.4462	234.1894	-8.2629E-3
184.4795	234.2228	-8.3962E-3
184.5128	234.2556	-8.3793E-3
184.5462	234.2880	-8.3874E-3
184.5812	234.3229	-8.4000E-3
184.6162	234.3574	-8.3490E-3
184.6495	234.3916	-8.3485E-3
184.6828	234.4249	-8.3390E-3
184.7162	234.4570	-8.3115E-3
184.7504	234.4917	-8.3271E-3
184.7844	234.5260	-8.2590E-3
184.8177	234.5582	-8.2156E-3
184.8510	234.5911	-8.3096E-3
184.8844	234.6237	-8.2430E-3
184.9176	234.6560	-8.2541E-3
184.9510	234.6896	-8.2553E-3
184.9844	234.7234	-8.2443E-3
185.0178	234.7552	-8.2660E-3
185.0512	234.7908	-8.2830E-3
185.0853	234.8227	-8.1634E-3
185.1195	234.8560	-8.3452E-3
185.1528	234.8895	-8.4131E-3
185.1862	234.9238	-8.3394E-3
185.2195	234.9567	-8.2664E-3
185.2537	234.9926	-8.2685E-3
185.2878	235.0259	-8.2577E-3
185.3212	235.0610	-8.2695E-3
185.3545	235.0945	-8.1221E-3
185.3878	235.1265	-8.2164E-3
185.4220	235.1600	-8.2598E-3
185.4562	235.1936	-8.3396E-3
185.4895	235.2260	-8.3263E-3
185.5228	235.2600	-8.3944E-3
185.5562	235.2930	-8.3909E-3
185.5912	235.3281	-8.4415E-3
185.6262	235.3620	-8.4671E-3
185.6595	235.3969	-8.4586E-3
185.6928	235.4309	-8.3633E-3
185.7262	235.4631	-8.3081E-3
185.7603	235.4960	-8.3769E-3
185.7945	235.5321	-8.4231E-3
185.8278	235.5660	-8.3230E-3
185.8612	235.5990	-8.3430E-3
185.8945	235.6320	-8.3610E-3
185.9287	235.6670	-8.3707E-3
185.9628	235.7008	-8.3846E-3
185.9960	235.7336	-8.3988E-3
186.0293	235.7674	-8.4145E-3
186.0627	235.8012	-8.3671E-3
186.0968	235.8352	-8.3875E-3
186.1310	235.8687	-8.3753E-3
186.1644	235.9018	-8.3987E-3
186.1976	235.9352	-8.4223E-3
186.2310	235.9686	-8.4346E-3
186.2660	236.0037	-8.4600E-3
186.3010	236.0392	-8.4822E-3
186.3344	236.0719	-8.4342E-3
186.3676	236.1051	-8.4372E-3
186.4010	236.1387	-8.4224E-3
186.4352	236.1720	-8.4060E-3
186.4694	236.2074	-8.4010E-3
186.5027	236.2393	-8.4558E-3
186.5360	236.2724	-8.5230E-3
186.5694	236.3056	-8.4930E-3
186.6035	236.3398	-8.4472E-3
186.6377	236.3731	-8.4538E-3
186.6710	236.4064	-8.4882E-3
186.7044	236.4396	-8.5282E-3
186.7377	236.4723	-8.5410E-3
186.7726	236.5078	-8.5166E-3
186.8076	236.5426	-8.4891E-3
186.8410	236.5763	-8.4547E-3
186.8744	236.6090	-8.5070E-3
186.9076	236.6440	-8.4567E-3
186.9418	236.6786	-8.3912E-3
186.9760	236.7126	-8.3798E-3
187.0094	236.7470	-8.3481E-3
187.0426	236.7806	-8.3729E-3
187.0760	236.8134	-8.4533E-3
187.1094	236.8479	-8.4312E-3
187.1427	236.8816	-8.4028E-3
187.1760	236.9160	-8.4121E-3
187.2094	236.9504	-8.4125E-3
187.2426	236.9836	-8.4734E-3
187.2768	237.0183	-8.5729E-3
187.3110	237.0524	-8.5704E-3
187.3444	237.0861	-8.5609E-3
187.3777	237.1203	-8.3932E-3
187.4110	237.1536	-8.3759E-3
187.4452	237.1871	-8.4148E-3
187.4794	237.2224	-8.3738E-3
187.5127	237.2547	-8.3961E-3
187.5460	237.2885	-8.4419E-3
187.5794	237.3210	-8.4692E-3
187.6135	237.3556	-8.5029E-3
187.6475	237.3901	-8.4761E-3
187.6808	237.4239	-8.4314E-3
187.7142	237.4582	-8.4418E-3
187.7475	237.4919	-8.4663E-3
187.7820	237.5248	-8.4813E-3
187.8162	237.5587	-8.5990E-3
187.8495	237.5922	-8.5867E-3
187.8828	237.6257	-8.4931E-3
187.9162	237.6590	-8.3973E-3
187.9503	237.6934	-8.3782E-3
187.9845	237.7277	-8.3448E-3
188.0178	237.7606	-8.2432E-3
188.0512	237.7926	-8.3778E-3
188.0845	237.8262	-8.4692E-3
188.1185	237.8611	-8.4138E-3
188.1526	237.8959	-8.3720E-3
188.1860	237.9276	-8.3892E-3
188.2194	237.9596	-8.4202E-3
188.2527	237.9933	-8.4619E-3
188.2868	238.0270	-8.3905E-3
188.3210	238.0614	-8.3946E-3
188.3544	238.0942	-8.3698E-3
188.3877	238.1277	-8.4250E-3
188.4210	238.1592	-8.4799E-3
188.4560	238.1941	-8.5159E-3
188.4910	238.2297	-8.4580E-3
188.5244	238.2632	-8.4470E-3
188.5576	238.2963	-8.5282E-3
188.5910	238.3296	-8.5501E-3
188.6252	238.3646	-8.4423E-3
188.6594	238.3989	-8.4484E-3
188.6927	238.4336	-8.4287E-3
188.7260	238.4667	-8.3820E-3
188.7594	238.5002	-8.4162E-3
188.7934	238.5342	-8.4712E-3
188.8275	238.5692	-8.4369E-3
188.8608	238.6028	-8.4379E-3
188.8945	238.6354	-8.5371E-3
188.9278	238.6690	-8.5456E-3
188.9612	238.7018	-8.4670E-3
188.9945	238.7336	-8.4765E-3
189.0278	238.7687	-8.6193E-3
189.0612	238.8016	-8.5269E-3
189.0945	238.8341	-8.5591E-3
189.1287	238.8684	-8.5884E-3
189.1627	238.9017	-8.5968E-3
189.1960	238.9344	-8.6583E-3
189.2294	238.9687	-8.6161E-3
189.2627	239.0025	-8.5742E-3
189.2977	239.0373	-8.5598E-3
189.3326	239.0722	-8.5695E-3
189.3660	239.1063	-8.5607E-3
189.3994	239.1406	-8.5303E-3
189.4326	239.1732	-8.5722E-3
189.4668	239.2076	-8.5566E-3
189.5010	239.2410	-8.5691E-3
189.5344	239.2756	-8.5766E-3
189.5677	239.3108	-8.5084E-3
189.6010	239.3435	-8.4201E-3
189.6344	239.3772	-8.4586E-3
189.6676	239.4108	-8.4933E-3
189.7010	239.4430	-8.5209E-3
189.7344	239.4766	-8.5469E-3
189.7677	239.5102	-8.5204E-3
189.8018	239.5442	-8.4550E-3
189.8360	239.5776	-8.4730E-3
189.8694	239.6112	-8.4598E-3
189.9026	239.6448	-8.4271E-3
189.9360	239.6781	-8.4103E-3
189.9702	239.7111	-8.4441E-3
190.0044	239.7452	-8.4962E-3
190.0377	239.7780	-8.5709E-3
190.0710	239.8103	-8.6720E-3
190.1044	239.8435	-8.6606E-3
190.1394	239.8778	-8.6368E-3
190.1744	239.9136	-8.7082E-3
190.2076	239.9476	-8.6924E-3
190.2410	239.9813	-8.4829E-3
190.2744	240.0135	-8.4528E-3
190.3085	240.0478	-8.4567E-3
190.3426	240.0823	-8.4855E-3
190.3760	240.1158	-8.4848E-3
190.4094	240.1492	-8.5153E-3
190.4427	240.1827	-8.5736E-3
190.4760	240.2169	-8.5964E-3
190.5094	240.2500	-8.5704E-3
190.5426	240.2828	-8.5626E-3
190.5760	240.3162	-8.5000E-3
190.6094	240.3494	-8.5317E-3
190.6435	240.3825	-8.6816E-3
190.6777	240.4180	-8.6536E-3
190.7110	240.4513	-8.5624E-3
190.7444	240.4842	-8.5031E-3
190.7776	240.5182	-8.4507E-3
190.8118	240.5513	-8.4842E-3
190.8460	240.5859	-8.5065E-3
190.8794	240.6189	-8.5072E-3
190.9127	240.6538	-8.5445E-3
190.9460	240.6867	-8.5148E-3
190.9802	240.7204	-8.5093E-3
191.0144	240.7539	-8.4854E-3
191.0477	240.7883	-8.5521E-3
191.0810	240.8216	-8.4994E-3
191.1144	240.8539	-8.4848E-3
191.1494	240.8901	-8.4814E-3
191.1844	240.9256	-8.4232E-3
191.2176	240.9579	-8.4696E-3
191.2510	240.9903	-8.5699E-3
191.2844	241.0244	-8.4678E-3
191.3185	241.0584	-8.4737E-3
191.3526	241.0916	-8.5224E-3
191.3860	241.1251	-8.5380E-3
191.4193	241.1574	-8.5147E-3
191.4526	241.1899	-8.5269E-3
191.4860	241.2230	-8.5802E-3
191.5194	241.2566	-8.6764E-3
191.5527	241.2899	-8.6592E-3
191.5860	241.3233	-8.7176E-3
191.6194	241.3574	-8.7281E-3
191.6525	241.3902	-8.6712E-3
191.6858	241.4226	-8.6310E-3
191.7192	241.4568	-8.6929E-3
191.7525	241.4904	-8.6804E-3
191.7858	241.5240	-8.6984E-3
191.8195	241.5576	-8.6515E-3
191.8528	241.5910	-8.6431E-3
191.8862	241.6242	-8.6850E-3
191.9195	241.6578	-8.7330E-3
191.9528	241.6910	-8.7619E-3
191.9862	241.7244	-8.7984E-3
192.0195	241.7582	-8.7846E-3
192.0528	241.7936	-8.7123E-3
192.0860	241.8264	-8.6305E-3
192.1194	241.8603	-8.6279E-3
192.1526	241.8934	-8.5530E-3
192.1860	241.9248	-8.6041E-3
192.2194	241.9586	-8.6813E-3
192.2527	241.9922	-8.6703E-3
192.2860	242.0256	-8.5959E-3
192.3194	242.0591	-8.5912E-3
192.3526	242.0915	-8.7138E-3
192.3860	242.1252	-8.7181E-3
192.4193	242.1582	-8.6899E-3
192.4526	242.1922	-8.7703E-3
192.4860	242.2252	-8.7319E-3
192.5194	242.2588	-8.7670E-3
192.5527	242.2922	-8.7455E-3
192.5860	242.3250	-8.6864E-3
192.6194	242.3595	-8.6894E-3
192.6526	242.3923	-8.6530E-3
192.6860	242.4260	-8.6740E-3
192.7194	242.4584	-8.6570E-3
192.7527	242.4929	-8.6457E-3
192.7860	242.5266	-8.6017E-3
192.8194	242.5606	-8.6316E-3
192.8526	242.5942	-8.6236E-3
192.8860	242.6268	-8.6223E-3
192.9193	242.6610	-8.6779E-3
192.9526	242.6946	-8.6817E-3
192.9860	242.7280	-8.6776E-3
193.0194	242.7602	-8.6977E-3
193.0527	242.7933	-8.7515E-3
193.0860	242.8272	-8.7921E-3
193.1194	242.8608	-8.7894E-3
193.1526	242.8941	-8.7801E-3
193.1860	242.9276	-8.7723E-3
193.2194	242.9606	-8.7574E-3
193.2527	242.9940	-8.7651E-3
193.2860	243.0268	-8.8086E-3
193.3194	243.0601	-8.7648E-3
193.3526	243.0920	-8.7831E-3
193.3860	243.1254	-8.7586E-3
193.4193	243.1592	-8.6797E-3
193.4526	243.1913	-8.6598E-3
193.4860	243.2251	-8.6527E-3
193.5194	243.2588	-8.6045E-3
193.5527	243.2922	-8.5854E-3
193.5860	243.3251	-8.6347E-3
193.6194	243.3586	-8.6620E-3
193.6526	243.3912	-8.6153E-3
193.6860	243.4236	-8.5919E-3
193.7194	243.4580	-8.5663E-3
193.7527	243.4916	-8.5212E-3
193.7860	243.5244	-8.5622E-3
193.8194	243.5570	-8.6186E-3
193.8526	243.5904	-8.6587E-3
193.8860	243.6239	-8.6945E-3
193.9193	243.6565	-8.6760E-3
193.9526	243.6902	-8.6567E-3
193.9860	243.7232	-8.6176E-3
194.0194	243.7562	-8.6591E-3
194.0527	243.7905	-8.7145E-3
194.0860	243.8223	-8.6922E-3
194.1194	243.8554	-8.6696E-3
194.1526	243.8880	-8.6196E-3
194.1860	243.9220	-8.6438E-3
194.2194	243.9556	-8.6258E-3
194.2527	243.9904	-8.5552E-3
194.2860	244.0235	-8.4407E-3
194.3194	244.0582	-8.4250E-3
194.3526	244.0916	-8.3977E-3
194.3860	244.1254	-8.3810E-3
194.4193	244.1599	-8.3779E-3
194.4526	244.1930	-8.3403E-3
194.4860	244.2264	-8.4167E-3
194.5194	244.2606	-8.4182E-3
194.5527	244.2944	-8.4119E-3
194.5860	244.3276	-8.4270E-3
194.6194	244.3608	-8.3252E-3
194.6526	244.3928	-8.3683E-3
194.6868	244.4276	-8.3885E-3
194.7210	244.4629	-8.3820E-3
194.7544	244.4962	-8.4049E-3
194.7877	244.5295	-8.4589E-3
194.8210	244.5634	-8.4841E-3
194.8552	244.5976	-8.4975E-3
194.8894	244.6321	-8.4926E-3
194.9227	244.6678	-8.5736E-3
194.9560	244.7013	-8.4425E-3
194.9894	244.7340	-8.3888E-3
195.0226	244.7678	-8.3758E-3
195.0560	244.8008	-8.3475E-3
195.0894	244.8344	-8.3613E-3
195.1227	244.8662	-8.3562E-3
195.1560	244.8994	-8.4236E-3
195.1894	244.9326	-8.4990E-3
195.2227	244.9655	-8.5065E-3
195.2560	244.9985	-8.5419E-3
195.2894	245.0308	-8.5497E-3
195.3226	245.0656	-8.5249E-3
195.3560	245.0989	-8.4796E-3
195.3894	245.1317	-8.5342E-3
195.4227	245.1646	-8.5872E-3
195.4560	245.1971	-8.5385E-3
195.4894	245.2303	-8.5538E-3
195.5226	245.2642	-8.5787E-3
195.5560	245.2964	-8.5871E-3
195.5894	245.3305	-8.6588E-3
195.6227	245.3650	-8.5656E-3
195.6558	245.3963	-8.4746E-3
195.6892	245.4302	-8.4837E-3
195.7227	245.4638	-8.4514E-3
195.7560	245.4966	-8.4750E-3
195.7894	245.5310	-8.5131E-3
195.8226	245.5640	-8.4974E-3
195.8560	245.5978	-8.4778E-3
195.8894	245.6312	-8.4571E-3
195.9227	245.6640	-8.5581E-3
195.9560	245.6966	-8.5819E-3
195.9894	245.7302	-8.5776E-3
196.0226	245.7635	-8.5977E-3
196.0560	245.7965	-8.5689E-3
196.0894	245.8294	-8.5569E-3
196.1227	245.8623	-8.6045E-3
196.1560	245.8966	-8.6064E-3
196.1894	245.9298	-8.5455E-3
196.2227	245.9626	-8.5238E-3
196.2560	245.9968	-8.5847E-3
196.2894	246.0304	-8.5540E-3
196.3226	246.0641	-8.4989E-3
196.3560	246.0974	-8.5060E-3
196.3892	246.1303	-8.4761E-3
196.4225	246.1630	-8.4775E-3
196.4558	246.1958	-8.5102E-3
196.4895	246.2299	-8.5296E-3
196.5228	246.2629	-8.5428E-3
196.5562	246.2955	-8.5163E-3
196.5895	246.3284	-8.5250E-3
196.6228	246.3614	-8.5437E-3
196.6562	246.3947	-8.5184E-3
196.6895	246.4283	-8.4606E-3
196.7228	246.4613	-8.4224E-3
196.7562	246.4947	-8.4240E-3
196.7895	246.5282	-8.4084E-3
196.8228	246.5610	-8.3792E-3
196.8558	246.5940	-8.3701E-3
196.8892	246.6278	-8.3371E-3
196.9225	246.6614	-8.3308E-3
196.9558	246.6941	-8.3779E-3
196.9894	246.7272	-8.4246E-3
197.0226	246.7610	-8.4355E-3
197.0560	246.7950	-8.4027E-3
197.0894	246.8282	-8.4588E-3
197.1227	246.8636	-8.4948E-3
197.1560	246.8984	-8.3649E-3
197.1894	246.9310	-8.3937E-3
197.2227	246.9634	-8.4831E-3
197.2560	246.9968	-8.5093E-3
197.2894	247.0297	-8.4805E-3
197.3226	247.0624	-8.4825E-3
197.3560	247.0962	-8.4910E-3
197.3894	247.1293	-8.5688E-3
197.4227	247.1628	-8.6014E-3
197.4560	247.1951	-8.5539E-3
197.4895	247.2278	-8.5612E-3
197.5228	247.2622	-8.5407E-3
197.5562	247.2948	-8.5705E-3
197.5895	247.3286	-8.5731E-3
197.6228	247.3612	-8.5414E-3
197.6562	247.3957	-8.5326E-3
197.6895	247.4286	-8.4857E-3
197.7228	247.4631	-8.5150E-3
197.7562	247.4962	-8.4947E-3
197.7895	247.5275	-8.4937E-3
197.8228	247.5649	-8.7404E-3
197.8562	247.5968	-8.4205E-3
197.8895	247.6303	-8.4135E-3
197.9228	247.6647	-8.2316E-3
197.9562	247.6943	-8.4376E-3
197.9895	247.7285	-8.6108E-3
198.0228	247.7602	-8.6297E-3
198.0576	247.7961	-8.6298E-3
198.0926	247.8315	-8.5604E-3
198.1260	247.8648	-8.5244E-3
198.1594	247.8972	-8.4946E-3
198.1927	247.9309	-8.5271E-3
198.2268	247.9650	-8.5287E-3
198.2610	247.9998	-8.4465E-3
198.2943	248.0340	-8.4569E-3
