CLOSED
Version	0.4
Run	866
Instrument	2950 TGA       V5.4A
Module	TGA 1000 øC
Sample	2023_07_10_Ni_calibration_1cpm
Size	14.9670	mg
Method	250C to 400C 1 cpm
Operator	SBK
Comment	2023_07_10_Ni_calibration_1cpm
Xcomment	Pan: Platinum           Gas1: Nitrogen  40          Gas2: Nitrogen  40
Text	2023_07_10_Ni_calibration_1cpm
Text	Calibration with nickel foam and magnet
Kcell	1.00000
TempCal	2	pts	158.19	152.50,	363.28	354.00
Thresholds	0.050	0.0000
Controls	Gas 1  Event Off  Sampling 2.0 sec/pt
Nsig	3
Sig1	Time (min)
Sig2	Temperature (øC)
Sig3	Weight (mg)
Date	10-Jul-23
Time	10:49
File	C:\TA\Data\TGA\Skyler\2023_07_10_Ni_calibration_1cpm.001
OrgFile	C:\TA\Data\TGA\Skyler\2023_07_10_Ni_calibration_1cpm.001
StartOfData
0.0000000	250.0392	15.01818
0.03266667	250.0470	15.01818
0.06683332	250.0590	15.01808
0.1010000	250.0780	15.01802
0.1343333	250.0977	15.01804
0.1676666	250.1188	15.01797
0.2010000	250.1425	15.01784
0.2351666	250.1668	15.01792
0.2693334	250.1903	15.01780
0.3026666	250.2180	15.01769
0.3360000	250.2446	15.01766
0.3693333	250.2716	15.01761
0.4035000	250.3010	15.01751
0.4376666	250.3300	15.01757
0.4710000	250.3578	15.01759
0.5043333	250.3874	15.01750
0.5376668	250.4177	15.01741
0.5726666	250.4499	15.01739
0.6076668	250.4803	15.01732
0.6410000	250.5108	15.01731
0.6743334	250.5423	15.01726
0.7076668	250.5735	15.01721
0.7418334	250.6049	15.01708
0.7760000	250.6410	15.01712
0.8093334	250.6738	15.01719
0.8426668	250.7054	15.01710
0.8760001	250.7386	15.01706
0.9101666	250.7694	15.01697
0.9443332	250.8040	15.01695
0.9776666	250.8364	15.01691
1.010833	250.8688	15.01677
1.044167	250.9022	15.01680
1.078334	250.9347	15.01682
1.112500	250.9700	15.01672
1.146167	251.0032	15.01669
1.179500	251.0354	15.01665
1.212834	251.0685	15.01664
1.247834	251.1026	15.01655
1.282833	251.1381	15.01650
1.316167	251.1713	15.01649
1.349500	251.2055	15.01654
1.382834	251.2360	15.01652
1.417000	251.2705	15.01639
1.451167	251.3054	15.01635
1.484500	251.3387	15.01628
1.517833	251.3722	15.01624
1.551167	251.4048	15.01616
1.585334	251.4404	15.01610
1.619500	251.4746	15.01609
1.652834	251.5062	15.01608
1.686166	251.5402	15.01597
1.719333	251.5740	15.01593
1.754334	251.6090	15.01597
1.789334	251.6432	15.01601
1.822666	251.6768	15.01604
1.856000	251.7118	15.01604
1.889334	251.7467	15.01601
1.923500	251.7808	15.01584
1.957666	251.8156	15.01570
1.991000	251.8501	15.01561
2.024333	251.8822	15.01555
2.057667	251.9138	15.01539
2.091833	251.9496	15.01538
2.126000	251.9834	15.01548
2.159333	252.0163	15.01547
2.192667	252.0493	15.01544
2.226000	252.0808	15.01534
2.260166	252.1149	15.01528
2.294333	252.1481	15.01528
2.327667	252.1815	15.01518
2.361000	252.2144	15.01509
2.394333	252.2475	15.01504
2.429334	252.2830	15.01499
2.464333	252.3170	15.01501
2.497666	252.3509	15.01491
2.531000	252.3840	15.01485
2.564334	252.4160	15.01478
2.598500	252.4500	15.01468
2.632666	252.4858	15.01479
2.666000	252.5174	15.01482
2.699334	252.5499	15.01471
2.732666	252.5830	15.01470
2.766833	252.6165	15.01468
2.801000	252.6511	15.01464
2.834334	252.6840	15.01464
2.867666	252.7182	15.01455
2.901000	252.7510	15.01453
2.935166	252.7834	15.01444
2.969334	252.8168	15.01436
3.002666	252.8496	15.01436
3.036000	252.8847	15.01430
3.069333	252.9184	15.01440
3.104334	252.9516	15.01451
3.139334	252.9858	15.01433
3.172666	253.0184	15.01421
3.206000	253.0506	15.01409
3.239334	253.0824	15.01410
3.273500	253.1178	15.01404
3.307666	253.1515	15.01400
3.341000	253.1830	15.01394
3.374333	253.2169	15.01386
3.407666	253.2503	15.01389
3.441833	253.2842	15.01390
3.476000	253.3172	15.01392
3.509334	253.3490	15.01378
3.542666	253.3829	15.01374
3.576000	253.4164	15.01374
3.610166	253.4516	15.01368
3.644333	253.4865	15.01368
3.677500	253.5180	15.01360
3.710834	253.5523	15.01350
3.744166	253.5858	15.01344
3.778333	253.6202	15.01337
3.812833	253.6556	15.01339
3.846167	253.6905	15.01334
3.879500	253.7231	15.01343
3.912833	253.7556	15.01329
3.947833	253.7908	15.01322
3.982834	253.8250	15.01314
4.016167	253.8588	15.01308
4.049500	253.8919	15.01300
4.082833	253.9260	15.01298
4.117000	253.9598	15.01294
4.151166	253.9935	15.01289
4.184500	254.0256	15.01284
4.217834	254.0585	15.01279
4.251167	254.0923	15.01278
4.285333	254.1260	15.01276
4.319500	254.1602	15.01268
4.352833	254.1930	15.01267
4.386166	254.2265	15.01267
4.419334	254.2589	15.01260
4.454334	254.2956	15.01252
4.489334	254.3300	15.01248
4.522666	254.3636	15.01238
4.556000	254.3965	15.01234
4.589334	254.4301	15.01229
4.623500	254.4658	15.01225
4.657666	254.4984	15.01226
4.691000	254.5301	15.01213
4.724333	254.5630	15.01202
4.757666	254.5972	15.01202
4.791666	254.6311	15.01204
4.825833	254.6659	15.01204
4.859500	254.6978	15.01207
4.892833	254.7316	15.01197
4.926166	254.7662	15.01195
4.960333	254.8012	15.01189
4.994333	254.8368	15.01187
5.027666	254.8698	15.01191
5.061000	254.9031	15.01186
5.094333	254.9368	15.01176
5.129334	254.9712	15.01179
5.164334	255.0061	15.01163
5.197666	255.0410	15.01171
5.231000	255.0730	15.01173
5.264334	255.1055	15.01173
5.298500	255.1395	15.01170
5.332500	255.1729	15.01162
5.365832	255.2055	15.01153
5.399500	255.2384	15.01142
5.432832	255.2716	15.01137
5.467000	255.3060	15.01134
5.501168	255.3384	15.01136
5.534332	255.3714	15.01130
5.567666	255.4052	15.01130
5.601000	255.4370	15.01123
5.635166	255.4725	15.01112
5.669334	255.5051	15.01113
5.702666	255.5404	15.01100
5.736000	255.5733	15.01106
5.769334	255.6082	15.01104
5.803500	255.6424	15.01113
5.837666	255.6746	15.01099
5.871000	255.7073	15.01087
5.904168	255.7400	15.01086
5.937500	255.7722	15.01082
5.972832	255.8080	15.01075
6.007832	255.8422	15.01064
6.041168	255.8758	15.01061
6.074500	255.9080	15.01059
6.107666	255.9422	15.01055
6.141834	255.9766	15.01056
6.176000	256.0096	15.01049
6.209334	256.0424	15.01037
6.242666	256.0746	15.01034
6.276000	256.1090	15.01024
6.310168	256.1440	15.01025
6.344334	256.1783	15.01028
6.377666	256.2108	15.01020
6.411000	256.2441	15.01016
6.444166	256.2781	15.01008
6.478332	256.3106	15.01003
6.512832	256.3450	15.00988
6.546168	256.3792	15.00989
6.579500	256.4118	15.00995
6.612832	256.4468	15.00994
6.647666	256.4793	15.01005
6.682666	256.5134	15.00991
6.716000	256.5466	15.00983
6.749334	256.5812	15.00980
6.782666	256.6134	15.00981
6.816000	256.6473	15.00978
6.849334	256.6805	15.00971
6.882666	256.7148	15.00969
6.916000	256.7483	15.00970
6.949168	256.7808	15.00966
6.982500	256.8142	15.00961
7.015832	256.8478	15.00957
7.049500	256.8814	15.00944
7.082832	256.9148	15.00938
7.116168	256.9483	15.00940
7.149500	256.9811	15.00939
7.182832	257.0158	15.00928
7.216000	257.0496	15.00923
7.249334	257.0819	15.00919
7.282666	257.1150	15.00916
7.316000	257.1477	15.00912
7.349334	257.1814	15.00906
7.382666	257.2148	15.00901
7.416000	257.2470	15.00901
7.449334	257.2810	15.00894
7.482666	257.3152	15.00889
7.516000	257.3485	15.00886
7.549334	257.3832	15.00886
7.582666	257.4156	15.00889
7.615832	257.4502	15.00872
7.649168	257.4839	15.00862
7.682832	257.5172	15.00872
7.716168	257.5490	15.00858
7.749500	257.5838	15.00836
7.782832	257.6168	15.00842
7.816168	257.6496	15.00843
7.849334	257.6824	15.00838
7.882666	257.7165	15.00839
7.916000	257.7482	15.00838
7.949334	257.7811	15.00824
7.982666	257.8148	15.00822
8.016000	257.8484	15.00821
8.049334	257.8825	15.00813
8.082666	257.9153	15.00808
8.116000	257.9465	15.00806
8.149334	257.9816	15.00813
8.182666	258.0140	15.00813
8.215834	258.0480	15.00790
8.249168	258.0811	15.00792
8.282500	258.1150	15.00796
8.316168	258.1489	15.00791
8.349500	258.1820	15.00785
8.382834	258.2150	15.00786
8.416168	258.2486	15.00785
8.449500	258.2809	15.00780
8.482832	258.3140	15.00773
8.516168	258.3467	15.00762
8.549334	258.3816	15.00763
8.582666	258.4143	15.00766
8.616000	258.4475	15.00762
8.649334	258.4806	15.00758
8.682668	258.5146	15.00751
8.716000	258.5470	15.00746
8.749334	258.5796	15.00743
8.782666	258.6118	15.00739
8.816000	258.6462	15.00729
8.849334	258.6794	15.00724
8.882668	258.7116	15.00721
8.916000	258.7436	15.00708
8.949334	258.7778	15.00702
8.982668	258.8098	15.00706
9.016000	258.8430	15.00698
9.049334	258.8760	15.00698
9.082666	258.9099	15.00697
9.116000	258.9442	15.00696
9.149334	258.9754	15.00689
9.182668	259.0098	15.00684
9.216000	259.0437	15.00682
9.249334	259.0762	15.00678
9.282666	259.1103	15.00676
9.316000	259.1445	15.00669
9.350166	259.1780	15.00664
9.384334	259.2127	15.00659
9.417499	259.2453	15.00654
9.450832	259.2785	15.00654
9.484168	259.3123	15.00644
9.518666	259.3484	15.00636
9.552832	259.3827	15.00635
9.586166	259.4139	15.00631
9.619500	259.4484	15.00626
9.652832	259.4827	15.00622
9.687834	259.5190	15.00627
9.722832	259.5532	15.00622
9.756166	259.5850	15.00599
9.789501	259.6190	15.00604
9.822832	259.6520	15.00603
9.856834	259.6856	15.00596
9.891000	259.7195	15.00591
9.924334	259.7529	15.00582
9.957666	259.7871	15.00582
9.991000	259.8190	15.00582
10.02517	259.8552	15.00576
10.05933	259.8880	15.00568
10.09267	259.9206	15.00565
10.12600	259.9535	15.00560
10.15933	259.9860	15.00555
10.19350	260.0218	15.00549
10.22767	260.0554	15.00555
10.26100	260.0882	15.00548
10.29433	260.1196	15.00542
10.32767	260.1531	15.00511
10.36183	260.1930	15.00530
10.39600	260.2248	15.00564
10.42933	260.2574	15.00541
10.46267	260.2914	15.00527
10.49600	260.3244	15.00524
10.53100	260.3594	15.00514
10.56600	260.3943	15.00507
10.59934	260.4274	15.00500
10.63267	260.4622	15.00501
10.66600	260.4952	15.00506
10.70016	260.5295	15.00494
10.73434	260.5611	15.00494
10.76766	260.5947	15.00477
10.80100	260.6280	15.00482
10.83434	260.6619	15.00482
10.86850	260.6948	15.00478
10.90267	260.7297	15.00474
10.93600	260.7633	15.00474
10.96934	260.7953	15.00475
11.00266	260.8283	15.00464
11.03766	260.8636	15.00454
11.07267	260.8983	15.00451
11.10600	260.9315	15.00438
11.13934	260.9670	15.00442
11.17267	260.9999	15.00441
11.20684	261.0342	15.00439
11.24100	261.0673	15.00441
11.27434	261.1000	15.00430
11.30767	261.1336	15.00426
11.34100	261.1668	15.00419
11.37517	261.2023	15.00417
11.40934	261.2358	15.00412
11.44266	261.2684	15.00404
11.47600	261.3032	15.00404
11.50934	261.3348	15.00407
11.54350	261.3683	15.00399
11.57766	261.4037	15.00395
11.61100	261.4366	15.00402
11.64434	261.4697	15.00398
11.67766	261.5032	15.00394
11.71266	261.5402	15.00397
11.74766	261.5730	15.00388
11.78100	261.6058	15.00385
11.81433	261.6408	15.00383
11.84767	261.6762	15.00388
11.88184	261.7120	15.00376
11.91600	261.7461	15.00371
11.94934	261.7789	15.00367
11.98267	261.8131	15.00354
12.01600	261.8466	15.00360
12.05017	261.8798	15.00354
12.08434	261.9147	15.00339
12.11766	261.9480	15.00344
12.15083	261.9812	15.00339
12.18416	262.0141	15.00336
12.21834	262.0485	15.00334
12.25250	262.0834	15.00332
12.28617	262.1171	15.00329
12.31950	262.1491	15.00319
12.35283	262.1827	15.00308
12.38700	262.2170	15.00324
12.42116	262.2524	15.00322
12.45450	262.2851	15.00318
12.48783	262.3186	15.00311
12.52117	262.3523	15.00302
12.55617	262.3872	15.00295
12.59100	262.4217	15.00292
12.62434	262.4539	15.00288
12.65766	262.4871	15.00288
12.69100	262.5202	15.00283
12.72516	262.5534	15.00272
12.75934	262.5884	15.00263
12.79266	262.6213	15.00264
12.82600	262.6542	15.00260
12.85933	262.6880	15.00255
12.89350	262.7225	15.00256
12.92767	262.7572	15.00258
12.96084	262.7908	15.00256
12.99416	262.8252	15.00244
13.02783	262.8577	15.00240
13.06284	262.8934	15.00230
13.09783	262.9284	15.00225
13.13116	262.9622	15.00232
13.16434	262.9949	15.00231
13.19767	263.0286	15.00227
13.23184	263.0617	15.00219
13.26600	263.0960	15.00213
13.29934	263.1304	15.00214
13.33266	263.1616	15.00211
13.36600	263.1940	15.00206
13.40016	263.2296	15.00202
13.43433	263.2639	15.00199
13.46750	263.2964	15.00205
13.50083	263.3276	15.00192
13.53450	263.3613	15.00180
13.56866	263.3958	15.00184
13.60283	263.4310	15.00181
13.63617	263.4644	15.00182
13.66950	263.4959	15.00173
13.70266	263.5293	15.00162
13.73767	263.5642	15.00163
13.77267	263.5994	15.00161
13.80600	263.6321	15.00163
13.83934	263.6647	15.00158
13.87267	263.6986	15.00153
13.90684	263.7316	15.00149
13.94100	263.7656	15.00146
13.97434	263.8004	15.00151
14.00766	263.8339	15.00155
14.04100	263.8674	15.00146
14.07516	263.9012	15.00143
14.10933	263.9364	15.00139
14.14250	263.9680	15.00136
14.17583	264.0008	15.00128
14.20916	264.0342	15.00123
14.24366	264.0694	15.00126
14.27783	264.1042	15.00125
14.31117	264.1364	15.00121
14.34450	264.1685	15.00111
14.37783	264.2032	15.00109
14.41283	264.2401	15.00116
14.44783	264.2759	15.00119
14.48100	264.3080	15.00120
14.51434	264.3425	15.00114
14.54767	264.3754	15.00118
14.58184	264.4090	15.00111
14.61600	264.4432	15.00112
14.64934	264.4750	15.00104
14.68266	264.5082	15.00085
14.71600	264.5408	15.00072
14.75016	264.5786	15.00072
14.78434	264.6142	15.00092
14.81766	264.6472	15.00100
14.85100	264.6783	15.00081
14.88434	264.7110	15.00058
14.91850	264.7460	15.00060
14.95266	264.7792	15.00068
14.98600	264.8124	15.00068
15.01934	264.8456	15.00067
15.05267	264.8780	15.00058
15.08684	264.9126	15.00052
15.12100	264.9468	15.00056
15.15434	264.9785	15.00058
15.18766	265.0129	15.00054
15.22100	265.0447	15.00056
15.25434	265.0811	15.00038
15.28766	265.1136	15.00049
15.32100	265.1484	15.00057
15.35434	265.1798	15.00062
15.38766	265.2130	15.00044
15.42100	265.2436	15.00032
15.45434	265.2830	15.00023
15.48767	265.3135	15.00059
15.52100	265.3537	15.00044
15.55417	265.3746	15.00060
15.58750	265.4130	15.00022
15.62117	265.4451	15.00024
15.65450	265.4770	15.00013
15.68784	265.5126	15.00008
15.72117	265.5460	15.00014
15.75450	265.5796	15.00016
15.78783	265.6142	15.00023
15.82100	265.6453	15.00017
15.85434	265.6799	15.00009
15.88766	265.7131	15.00004
15.92100	265.7460	15.00000
15.95434	265.7802	14.99999
15.98767	265.8130	15.00001
16.02100	265.8459	14.99999
16.05434	265.8796	14.99996
16.08767	265.9127	14.99998
16.12100	265.9459	14.99993
16.15434	265.9784	14.99990
16.18766	266.0116	14.99980
16.22083	266.0445	14.99982
16.25417	266.0782	14.99981
16.28784	266.1122	14.99982
16.32117	266.1460	14.99983
16.35450	266.1795	14.99979
16.38783	266.2122	14.99971
16.42117	266.2456	14.99971
16.45450	266.2793	14.99971
16.48767	266.3133	14.99966
16.52100	266.3463	14.99969
16.55434	266.3794	14.99966
16.58767	266.4126	14.99960
16.62100	266.4453	14.99952
16.65434	266.4817	14.99954
16.68766	266.5150	14.99967
16.72100	266.5470	14.99962
16.75434	266.5798	14.99960
16.78766	266.6136	14.99961
16.82100	266.6470	14.99960
16.85434	266.6816	14.99966
16.88750	266.7146	14.99967
16.92084	266.7506	14.99956
16.95416	266.7846	14.99962
16.98783	266.8186	14.99964
17.02116	266.8516	14.99954
17.05450	266.8832	14.99944
17.08783	266.9174	14.99938
17.12117	266.9502	14.99941
17.15450	266.9826	14.99941
17.18784	267.0156	14.99934
17.22117	267.0490	14.99927
17.25450	267.0770	14.99932
17.28784	267.1191	14.99916
17.32117	267.1498	14.99955
17.35450	267.1876	14.99956
17.38766	267.2116	14.99969
17.42100	267.2505	14.99929
17.45434	267.2812	14.99935
17.48767	267.3132	14.99927
17.52100	267.3478	14.99916
17.55434	267.3814	14.99920
17.58767	267.4155	14.99917
17.62100	267.4490	14.99912
17.65434	267.4822	14.99909
17.68766	267.5148	14.99907
17.72100	267.5487	14.99903
17.75434	267.5825	14.99902
17.78850	267.6161	14.99907
17.82266	267.6504	14.99911
17.85600	267.6848	14.99914
17.88934	267.7179	14.99913
17.92267	267.7510	14.99915
17.95684	267.7844	14.99912
17.99100	267.8186	14.99909
18.02434	267.8522	14.99910
18.05766	267.8851	14.99908
18.09100	267.9186	14.99903
18.12516	267.9520	14.99902
18.15916	267.9859	14.99897
18.19250	268.0200	14.99888
18.22583	268.0538	14.99893
18.25917	268.0860	14.99896
18.29334	268.1211	14.99899
18.32750	268.1553	14.99903
18.36084	268.1882	14.99896
18.39450	268.2217	14.99891
18.42784	268.2545	14.99890
18.46200	268.2879	14.99885
18.49617	268.3222	14.99882
18.52950	268.3553	14.99886
18.56284	268.3894	14.99895
18.59617	268.4214	14.99891
18.63100	268.4559	14.99886
18.66600	268.4908	14.99881
18.69934	268.5244	14.99880
18.73266	268.5571	14.99872
18.76600	268.5900	14.99869
18.80017	268.6252	14.99870
18.83434	268.6596	14.99879
18.86766	268.6938	14.99881
18.90100	268.7270	14.99880
18.93434	268.7614	14.99871
18.96850	268.7975	14.99872
19.00267	268.8326	14.99867
19.03600	268.8660	14.99860
19.06934	268.9004	14.99862
19.10267	268.9332	14.99858
19.13600	268.9660	14.99857
19.16916	268.9996	14.99858
19.20250	269.0320	14.99855
19.23617	269.0672	14.99854
19.26950	269.1004	14.99860
19.30284	269.1336	14.99866
19.33617	269.1662	14.99861
19.36950	269.1998	14.99854
19.40284	269.2324	14.99848
19.43617	269.2661	14.99852
19.46950	269.2983	14.99856
19.50267	269.3299	14.99853
19.53600	269.3646	14.99846
19.56934	269.3982	14.99846
19.60267	269.4308	14.99848
19.63600	269.4648	14.99849
19.66934	269.4983	14.99847
19.70267	269.5327	14.99839
19.73600	269.5652	14.99833
19.76934	269.5982	14.99828
19.80266	269.6317	14.99827
19.83600	269.6650	14.99827
19.86934	269.6980	14.99829
19.90266	269.7319	14.99830
19.93600	269.7639	14.99828
19.96934	269.7984	14.99830
20.00267	269.8305	14.99830
20.03600	269.8641	14.99823
20.06934	269.8982	14.99821
20.10250	269.9307	14.99821
20.13584	269.9635	14.99822
20.16950	269.9970	14.99823
20.20284	270.0295	14.99824
20.23617	270.0647	14.99819
20.26950	270.0974	14.99824
20.30284	270.1290	14.99828
20.33600	270.1612	14.99820
20.36934	270.1970	14.99814
20.40266	270.2295	14.99825
20.43600	270.2624	14.99819
20.46934	270.2953	14.99823
20.50266	270.3281	14.99814
20.53600	270.3615	14.99802
20.56934	270.3940	14.99804
20.60266	270.4272	14.99807
20.63600	270.4608	14.99806
20.66934	270.4960	14.99801
20.70266	270.5283	14.99806
20.73600	270.5625	14.99807
20.76934	270.5942	14.99806
20.80250	270.6265	14.99804
20.83583	270.6601	14.99802
20.86917	270.6937	14.99800
20.90284	270.7272	14.99792
20.93617	270.7592	14.99787
20.96950	270.7938	14.99790
21.00283	270.8266	14.99796
21.03617	270.8601	14.99791
21.06950	270.8937	14.99790
21.10283	270.9270	14.99794
21.13617	270.9610	14.99796
21.16934	270.9940	14.99789
21.20266	271.0251	14.99785
21.23600	271.0615	14.99780
21.26934	271.0952	14.99781
21.30266	271.1282	14.99789
21.33600	271.1618	14.99789
21.36934	271.1928	14.99794
21.40266	271.2270	14.99780
21.43600	271.2624	14.99786
21.46934	271.2956	14.99793
21.50266	271.3283	14.99798
21.53600	271.3604	14.99783
21.56917	271.3920	14.99770
21.60250	271.4262	14.99748
21.63617	271.4594	14.99755
21.66950	271.4950	14.99762
21.70284	271.5278	14.99785
21.73617	271.5598	14.99776
21.76950	271.5935	14.99774
21.80284	271.6260	14.99778
21.83767	271.6609	14.99774
21.87266	271.6962	14.99765
21.90600	271.7302	14.99772
21.93934	271.7630	14.99774
21.97266	271.7954	14.99767
22.00684	271.8295	14.99754
22.04100	271.8662	14.99765
22.07434	271.8991	14.99772
22.10766	271.9345	14.99782
22.14083	271.9675	14.99808
22.17500	271.9990	14.99793
22.20950	272.0371	14.99774
22.24284	272.0707	14.99766
22.27617	272.1043	14.99764
22.30934	272.1373	14.99770
22.34350	272.1709	14.99763
22.37766	272.2041	14.99758
22.41100	272.2376	14.99756
22.44434	272.2711	14.99759
22.47766	272.3045	14.99760
22.51184	272.3390	14.99763
22.54600	272.3730	14.99763
22.57934	272.4065	14.99760
22.61267	272.4392	14.99759
22.64584	272.4730	14.99756
22.68083	272.5088	14.99755
22.71584	272.5432	14.99755
22.74950	272.5755	14.99758
22.78284	272.6099	14.99758
22.81616	272.6442	14.99759
22.85034	272.6777	14.99756
22.88450	272.7121	14.99755
22.91766	272.7452	14.99760
22.95100	272.7775	14.99763
22.98433	272.8115	14.99757
23.01850	272.8462	14.99757
23.05266	272.8796	14.99762
23.08600	272.9126	14.99760
23.11934	272.9460	14.99759
23.15266	272.9792	14.99756
23.18683	273.0128	14.99757
23.22100	273.0472	14.99754
23.25417	273.0800	14.99752
23.28750	273.1138	14.99754
23.32117	273.1476	14.99753
23.35617	273.1826	14.99750
23.39117	273.2164	14.99753
23.42450	273.2497	14.99754
23.45784	273.2836	14.99757
23.49100	273.3186	14.99756
23.52517	273.3523	14.99759
23.55934	273.3848	14.99760
23.59266	273.4187	14.99762
23.62600	273.4524	14.99764
23.65934	273.4853	14.99760
23.69266	273.5190	14.99759
23.72600	273.5518	14.99763
23.75933	273.5835	14.99759
23.79266	273.6154	14.99746
23.82600	273.6494	14.99754
23.85933	273.6830	14.99752
23.89266	273.7165	14.99746
23.92583	273.7510	14.99751
23.95917	273.7824	14.99762
23.99250	273.8167	14.99756
24.02617	273.8510	14.99759
24.05950	273.8835	14.99760
24.09283	273.9163	14.99754
24.12617	273.9503	14.99756
24.15950	273.9850	14.99761
24.19283	274.0172	14.99760
24.22617	274.0494	14.99754
24.25950	274.0820	14.99748
24.29283	274.1170	14.99755
24.32617	274.1518	14.99759
24.35933	274.1834	14.99768
24.39266	274.2166	14.99761
24.42600	274.2496	14.99756
24.45934	274.2845	14.99756
24.49266	274.3164	14.99770
24.52600	274.3470	14.99762
24.55934	274.3838	14.99744
24.59266	274.4168	14.99759
24.62600	274.4515	14.99763
24.65934	274.4870	14.99762
24.69266	274.5182	14.99768
24.72600	274.5516	14.99756
24.75933	274.5846	14.99749
24.79266	274.6180	14.99745
24.82583	274.6502	14.99747
24.85917	274.6853	14.99746
24.89284	274.7183	14.99753
24.92617	274.7520	14.99753
24.95950	274.7858	14.99752
24.99284	274.8188	14.99752
25.02617	274.8525	14.99749
25.05950	274.8854	14.99749
25.09266	274.9191	14.99754
25.12600	274.9518	14.99752
25.15934	274.9860	14.99752
25.19266	275.0194	14.99754
25.22600	275.0528	14.99747
25.25933	275.0868	14.99744
25.29266	275.1186	14.99752
25.32600	275.1535	14.99751
25.35933	275.1867	14.99756
25.39266	275.2192	14.99752
25.42600	275.2520	14.99746
25.45934	275.2854	14.99746
25.49266	275.3185	14.99749
25.52583	275.3518	14.99745
25.55916	275.3854	14.99745
25.59250	275.4190	14.99742
25.62617	275.4530	14.99746
25.65950	275.4875	14.99750
25.69284	275.5203	14.99753
25.72617	275.5530	14.99747
25.75950	275.5864	14.99746
25.79284	275.6190	14.99746
25.82600	275.6526	14.99738
25.85933	275.6879	14.99749
25.89266	275.7206	14.99755
25.92600	275.7536	14.99750
25.95933	275.7861	14.99751
25.99266	275.8199	14.99748
26.02600	275.8539	14.99741
26.05933	275.8869	14.99739
26.09266	275.9205	14.99740
26.12600	275.9533	14.99747
26.15917	275.9865	14.99744
26.19250	276.0204	14.99741
26.22700	276.0550	14.99739
26.26117	276.0877	14.99734
26.29450	276.1215	14.99732
26.32783	276.1544	14.99734
26.36100	276.1906	14.99746
26.39600	276.2238	14.99751
26.43100	276.2578	14.99741
26.46433	276.2902	14.99744
26.49767	276.3244	14.99748
26.53100	276.3568	14.99749
26.56516	276.3919	14.99748
26.59933	276.4252	14.99747
26.63266	276.4589	14.99751
26.66600	276.4913	14.99749
26.69934	276.5246	14.99750
26.73350	276.5600	14.99741
26.76766	276.5947	14.99751
26.80083	276.6279	14.99755
26.83417	276.6609	14.99754
26.86784	276.6964	14.99758
26.90200	276.7298	14.99757
26.93617	276.7641	14.99756
26.96950	276.7963	14.99759
27.00266	276.8289	14.99756
27.03600	276.8620	14.99752
27.07100	276.8961	14.99746
27.10600	276.9328	14.99742
27.13934	276.9672	14.99752
27.17266	277.0006	14.99759
27.20600	277.0308	14.99756
27.24016	277.0666	14.99741
27.27434	277.1004	14.99746
27.30766	277.1326	14.99751
27.34100	277.1650	14.99750
27.37433	277.1979	14.99750
27.40833	277.2320	14.99746
27.44250	277.2667	14.99743
27.47617	277.3002	14.99744
27.50950	277.3336	14.99748
27.54284	277.3657	14.99741
27.57700	277.4006	14.99742
27.61100	277.4358	14.99744
27.64434	277.4694	14.99752
27.67766	277.5024	14.99753
27.71100	277.5354	14.99750
27.74600	277.5702	14.99750
27.78100	277.6052	14.99761
27.81434	277.6387	14.99757
27.84766	277.6709	14.99754
27.88100	277.7037	14.99752
27.91516	277.7384	14.99755
27.94934	277.7717	14.99752
27.98266	277.8056	14.99746
28.01583	277.8390	14.99743
28.04950	277.8723	14.99744
28.08367	277.9084	14.99744
28.11784	277.9421	14.99744
28.15117	277.9744	14.99745
28.18450	278.0068	14.99740
28.21766	278.0419	14.99736
28.25184	278.0770	14.99744
28.28600	278.1121	14.99755
28.31934	278.1468	14.99764
28.35266	278.1782	14.99768
28.38600	278.2117	14.99764
28.42100	278.2478	14.99761
28.45600	278.2812	14.99762
28.48934	278.3146	14.99758
28.52267	278.3472	14.99748
28.55600	278.3809	14.99746
28.59016	278.4142	14.99749
28.62417	278.4492	14.99757
28.65750	278.4800	14.99743
28.69116	278.5160	14.99744
28.72450	278.5509	14.99753
28.75867	278.5864	14.99763
28.79284	278.6183	14.99770
28.82617	278.6493	14.99760
28.85950	278.6836	14.99754
28.89284	278.7162	14.99756
28.92684	278.7494	14.99749
28.96100	278.7854	14.99747
28.99434	278.8186	14.99758
29.02766	278.8532	14.99768
29.06100	278.8858	14.99784
29.09600	278.9209	14.99788
29.13100	278.9552	14.99788
29.16434	278.9886	14.99785
29.19766	279.0224	14.99784
29.23100	279.0543	14.99785
29.26516	279.0867	14.99777
29.29934	279.1233	14.99770
29.33266	279.1560	14.99777
29.36583	279.1893	14.99779
29.39917	279.2230	14.99776
29.43367	279.2574	14.99768
29.46783	279.2914	14.99771
29.50117	279.3241	14.99772
29.53450	279.3572	14.99772
29.56784	279.3914	14.99772
29.60200	279.4250	14.99774
29.63617	279.4593	14.99771
29.66950	279.4905	14.99768
29.70283	279.5254	14.99753
29.73617	279.5594	14.99763
29.77100	279.5938	14.99774
29.80600	279.6287	14.99774
29.83933	279.6621	14.99768
29.87267	279.6959	14.99770
29.90600	279.7312	14.99774
29.94016	279.7641	14.99776
29.97433	279.7975	14.99771
30.00766	279.8325	14.99761
30.04100	279.8658	14.99770
30.07434	279.8982	14.99767
30.10850	279.9335	14.99774
30.14266	279.9678	14.99778
30.17600	280.0006	14.99777
30.20933	280.0335	14.99776
30.24266	280.0650	14.99777
30.27666	280.1012	14.99765
30.31084	280.1358	14.99779
30.34416	280.1688	14.99781
30.37783	280.2046	14.99782
30.41117	280.2370	14.99783
30.44534	280.2700	14.99770
30.47950	280.3042	14.99766
30.51283	280.3373	14.99764
30.54617	280.3700	14.99764
30.57934	280.4053	14.99760
30.61434	280.4419	14.99787
30.64934	280.4744	14.99784
30.68266	280.5073	14.99778
30.71600	280.5410	14.99774
30.74933	280.5746	14.99772
30.78350	280.6090	14.99773
30.81766	280.6442	14.99774
30.85100	280.6762	14.99775
30.88433	280.7092	14.99769
30.91766	280.7428	14.99778
30.95100	280.7770	14.99788
30.98433	280.8100	14.99790
31.01766	280.8432	14.99785
31.05100	280.8765	14.99794
31.08433	280.9094	14.99803
31.11766	280.9419	14.99804
31.15100	280.9760	14.99800
31.18417	281.0087	14.99802
31.21750	281.0433	14.99802
31.25083	281.0740	14.99795
31.28450	281.1084	14.99791
31.31784	281.1422	14.99799
31.35117	281.1764	14.99797
31.38450	281.2089	14.99797
31.41784	281.2430	14.99798
31.45117	281.2772	14.99804
31.48433	281.3109	14.99804
31.51766	281.3444	14.99802
31.55100	281.3772	14.99806
31.58433	281.4100	14.99800
31.61766	281.4442	14.99804
31.65100	281.4766	14.99808
31.68433	281.5102	14.99808
31.71766	281.5429	14.99806
31.75100	281.5752	14.99800
31.78434	281.6088	14.99805
31.81766	281.6406	14.99806
31.85100	281.6746	14.99806
31.88433	281.7076	14.99808
31.91766	281.7424	14.99805
31.95100	281.7752	14.99805
31.98433	281.8082	14.99808
32.01766	281.8430	14.99805
32.05100	281.8764	14.99808
32.08433	281.9102	14.99813
32.11767	281.9430	14.99817
32.15100	281.9784	14.99822
32.18433	282.0085	14.99828
32.21766	282.0426	14.99815
32.25083	282.0778	14.99819
32.28417	282.1109	14.99831
32.31784	282.1446	14.99838
32.35117	282.1750	14.99834
32.38450	282.2091	14.99818
32.41783	282.2430	14.99822
32.45117	282.2752	14.99827
32.48450	282.3082	14.99829
32.51784	282.3424	14.99831
32.55117	282.3755	14.99831
32.58433	282.4081	14.99832
32.61767	282.4411	14.99830
32.65100	282.4741	14.99834
32.68433	282.5065	14.99834
32.71766	282.5398	14.99833
32.75100	282.5722	14.99825
32.78433	282.6058	14.99824
32.81766	282.6386	14.99823
32.85100	282.6717	14.99826
32.88434	282.7064	14.99832
32.91766	282.7390	14.99834
32.95100	282.7702	14.99834
32.98433	282.8052	14.99823
33.01766	282.8384	14.99826
33.05100	282.8713	14.99826
33.08433	282.9052	14.99827
33.11767	282.9395	14.99848
33.15100	282.9712	14.99852
33.18433	283.0044	14.99826
33.21766	283.0388	14.99824
33.25100	283.0722	14.99828
33.28417	283.1055	14.99828
33.31750	283.1391	14.99827
33.35083	283.1730	14.99828
33.38417	283.2037	14.99825
33.41750	283.2382	14.99817
33.45083	283.2720	14.99825
33.48500	283.3073	14.99826
33.51916	283.3417	14.99828
33.55250	283.3738	14.99839
33.58584	283.4068	14.99830
33.61917	283.4406	14.99825
33.65250	283.4749	14.99824
33.68584	283.5075	14.99832
33.71916	283.5404	14.99832
33.75250	283.5735	14.99832
33.78583	283.6072	14.99842
33.81917	283.6417	14.99850
33.85250	283.6741	14.99844
33.88584	283.7089	14.99830
33.91916	283.7425	14.99834
33.95284	283.7758	14.99840
33.98617	283.8086	14.99844
34.01950	283.8430	14.99845
34.05283	283.8770	14.99842
34.08617	283.9130	14.99842
34.11950	283.9437	14.99851
34.15283	283.9765	14.99841
34.18616	284.0118	14.99832
34.21950	284.0450	14.99840
34.25284	284.0785	14.99844
34.28617	284.1122	14.99844
34.31950	284.1460	14.99848
34.35283	284.1795	14.99842
34.38617	284.2129	14.99846
34.41950	284.2442	14.99833
34.45284	284.2776	14.99834
34.48617	284.3120	14.99846
34.51950	284.3459	14.99855
34.55283	284.3799	14.99860
34.58617	284.4128	14.99856
34.61950	284.4462	14.99854
34.65283	284.4787	14.99860
34.68616	284.5122	14.99856
34.71950	284.5460	14.99858
34.75284	284.5786	14.99858
34.78617	284.6116	14.99862
34.81950	284.6455	14.99869
34.85283	284.6791	14.99870
34.88617	284.7130	14.99864
34.91950	284.7466	14.99861
34.95250	284.7800	14.99865
34.98584	284.8138	14.99863
35.01916	284.8474	14.99862
35.05250	284.8809	14.99864
35.08584	284.9146	14.99868
35.11917	284.9466	14.99871
35.15250	284.9810	14.99876
35.18584	285.0139	14.99874
35.21933	285.0457	14.99870
35.25266	285.0798	14.99868
35.28600	285.1122	14.99873
35.31933	285.1462	14.99866
35.35266	285.1775	14.99868
35.38600	285.2106	14.99861
35.41934	285.2454	14.99862
35.45266	285.2772	14.99873
35.48600	285.3106	14.99876
35.51933	285.3464	14.99878
35.55266	285.3779	14.99885
35.58600	285.4095	14.99878
35.61934	285.4424	14.99880
35.65266	285.4750	14.99886
35.68600	285.5098	14.99896
35.71933	285.5420	14.99898
35.75266	285.5747	14.99891
35.78600	285.6108	14.99882
35.81933	285.6421	14.99888
35.85266	285.6762	14.99878
35.88600	285.7096	14.99884
35.91934	285.7438	14.99886
35.95266	285.7755	14.99887
35.98600	285.8070	14.99868
36.01933	285.8420	14.99878
36.05266	285.8768	14.99893
36.08600	285.9114	14.99899
36.11934	285.9432	14.99903
36.15266	285.9772	14.99896
36.18600	286.0105	14.99889
36.21933	286.0425	14.99886
36.25266	286.0764	14.99890
36.28600	286.1106	14.99895
36.31933	286.1444	14.99899
36.35350	286.1788	14.99898
36.38766	286.2140	14.99903
36.42100	286.2477	14.99914
36.45433	286.2789	14.99910
36.48767	286.3141	14.99904
36.52267	286.3494	14.99907
36.55766	286.3840	14.99906
36.59100	286.4175	14.99901
36.62433	286.4511	14.99906
36.65766	286.4852	14.99918
36.69183	286.5203	14.99939
36.72600	286.5545	14.99950
36.75934	286.5870	14.99940
36.79266	286.6200	14.99930
36.82600	286.6534	14.99925
36.86000	286.6886	14.99920
36.89416	286.7217	14.99925
36.92750	286.7552	14.99926
36.96084	286.7884	14.99930
36.99417	286.8194	14.99930
37.02766	286.8535	14.99925
37.06100	286.8872	14.99926
37.09433	286.9188	14.99928
37.12766	286.9526	14.99924
37.16100	286.9859	14.99924
37.19433	287.0188	14.99924
37.22766	287.0520	14.99921
37.26100	287.0857	14.99931
37.29434	287.1194	14.99938
37.32766	287.1510	14.99940
37.36100	287.1855	14.99934
37.39433	287.2185	14.99933
37.42766	287.2526	14.99925
37.46100	287.2856	14.99924
37.49434	287.3204	14.99924
37.52766	287.3523	14.99930
37.56100	287.3866	14.99922
37.59433	287.4196	14.99932
37.62766	287.4512	14.99933
37.66100	287.4849	14.99927
37.69433	287.5194	14.99927
37.72766	287.5549	14.99935
37.76100	287.5882	14.99944
37.79434	287.6200	14.99938
37.82766	287.6538	14.99931
37.86100	287.6875	14.99934
37.89433	287.7196	14.99939
37.92766	287.7524	14.99932
37.96100	287.7848	14.99930
37.99434	287.8185	14.99932
38.02766	287.8522	14.99930
38.06100	287.8883	14.99948
38.09433	287.9201	14.99961
38.12766	287.9522	14.99955
38.16100	287.9860	14.99957
38.19433	288.0192	14.99954
38.22766	288.0522	14.99950
38.26100	288.0844	14.99950
38.29434	288.1167	14.99948
38.32766	288.1502	14.99947
38.36100	288.1842	14.99944
38.39433	288.2166	14.99940
38.42766	288.2490	14.99944
38.46100	288.2798	14.99944
38.49434	288.3152	14.99949
38.52766	288.3494	14.99953
38.56100	288.3824	14.99962
38.59433	288.4164	14.99962
38.62766	288.4498	14.99966
38.66100	288.4828	14.99965
38.69450	288.5162	14.99961
38.72783	288.5508	14.99973
38.76117	288.5832	14.99987
38.79450	288.6154	14.99979
38.82784	288.6487	14.99968
38.86117	288.6822	14.99971
38.89450	288.7163	14.99976
38.92783	288.7490	14.99978
38.96117	288.7825	14.99974
38.99450	288.8180	14.99974
39.02783	288.8511	14.99976
39.06116	288.8834	14.99970
39.09450	288.9171	14.99964
39.12784	288.9508	14.99972
39.16117	288.9834	14.99974
39.19417	289.0185	14.99971
39.22750	289.0528	14.99980
39.26084	289.0852	14.99990
39.29416	289.1179	14.99988
39.32766	289.1499	14.99980
39.36100	289.1841	14.99975
39.39433	289.2181	14.99982
39.42766	289.2518	14.99992
39.46100	289.2848	14.99997
39.49434	289.3185	14.99994
39.52766	289.3526	14.99989
39.56100	289.3855	14.99990
39.59433	289.4180	14.99994
39.62766	289.4520	14.99997
39.66100	289.4850	14.99994
39.69433	289.5194	14.99997
39.72850	289.5541	15.00001
39.76266	289.5880	15.00001
39.79600	289.6214	15.00000
39.82933	289.6547	14.99997
39.86267	289.6885	15.00001
39.89767	289.7230	15.00008
39.93266	289.7588	15.00012
39.96600	289.7920	15.00012
39.99933	289.8256	15.00011
40.03266	289.8588	15.00012
40.06683	289.8933	15.00008
40.10100	289.9276	15.00011
40.13434	289.9598	15.00014
40.16766	289.9941	15.00010
40.20100	290.0274	15.00006
40.23416	290.0622	15.00011
40.26750	290.0944	15.00013
40.30084	290.1283	15.00013
40.33450	290.1620	15.00009
40.36783	290.1954	15.00010
40.40117	290.2294	15.00011
40.43450	290.2622	15.00009
40.46784	290.2954	15.00016
40.50100	290.3260	15.00008
40.53433	290.3619	15.00006
40.56766	290.3944	15.00016
40.60100	290.4280	15.00018
40.63434	290.4617	15.00022
40.66766	290.4948	15.00019
40.70100	290.5279	15.00021
40.73433	290.5615	15.00024
40.76766	290.5950	15.00028
40.80100	290.6282	15.00034
40.83433	290.6609	15.00032
40.86767	290.6918	15.00023
40.90100	290.7256	15.00033
40.93433	290.7603	15.00039
40.96766	290.7935	15.00046
41.00100	290.8286	15.00060
41.03433	290.8598	15.00058
41.06766	290.8928	15.00040
41.10100	290.9256	15.00044
41.13434	290.9592	15.00049
41.16766	290.9916	15.00049
41.20100	291.0238	15.00037
41.23433	291.0576	15.00030
41.26766	291.0920	15.00050
41.30084	291.1257	15.00060
41.33417	291.1594	15.00056
41.36750	291.1922	15.00060
41.40084	291.2244	15.00062
41.43417	291.2581	15.00064
41.46750	291.2919	15.00067
41.50117	291.3256	15.00063
41.53450	291.3594	15.00072
41.56783	291.3919	15.00074
41.60117	291.4252	15.00071
41.63450	291.4591	15.00075
41.66783	291.4924	15.00076
41.70117	291.5258	15.00074
41.73450	291.5590	15.00080
41.76783	291.5926	15.00086
41.80117	291.6252	15.00092
41.83450	291.6590	15.00085
41.86783	291.6928	15.00087
41.90117	291.7248	15.00088
41.93450	291.7589	15.00091
41.96783	291.7925	15.00093
42.00117	291.8269	15.00096
42.03450	291.8600	15.00099
42.06783	291.8930	15.00094
42.10117	291.9254	15.00094
42.13450	291.9623	15.00098
42.16783	291.9942	15.00100
42.20117	292.0280	15.00094
42.23450	292.0621	15.00099
42.26783	292.0949	15.00112
42.30117	292.1270	15.00113
42.33450	292.1604	15.00113
42.36783	292.1920	15.00110
42.40100	292.2262	15.00108
42.43433	292.2611	15.00116
42.46766	292.2938	15.00122
42.50100	292.3270	15.00113
42.53433	292.3600	15.00108
42.56766	292.3948	15.00115
42.60100	292.4283	15.00120
42.63434	292.4605	15.00123
42.66766	292.4932	15.00125
42.70100	292.5268	15.00130
42.73433	292.5608	15.00134
42.76850	292.5957	15.00137
42.80266	292.6319	15.00146
42.83600	292.6664	15.00147
42.86934	292.6992	15.00148
42.90266	292.7326	15.00141
42.93683	292.7659	15.00138
42.97100	292.7991	15.00146
43.00434	292.8318	15.00136
43.03766	292.8658	15.00134
43.07100	292.9019	15.00144
43.10434	292.9344	15.00161
43.13766	292.9652	15.00166
43.17100	292.9981	15.00162
43.20434	293.0305	15.00155
43.23766	293.0640	15.00154
43.27100	293.0980	15.00156
43.30434	293.1306	15.00165
43.33766	293.1632	15.00170
43.37100	293.1959	15.00161
43.40434	293.2310	15.00172
43.43766	293.2627	15.00177
43.47100	293.2964	15.00174
43.50434	293.3316	15.00182
43.53766	293.3620	15.00177
43.57100	293.3947	15.00168
43.60434	293.4275	15.00167
43.63766	293.4628	15.00178
43.67100	293.4944	15.00186
43.70434	293.5264	15.00175
43.73766	293.5600	15.00173
43.77100	293.5928	15.00178
43.80434	293.6266	15.00181
43.83766	293.6594	15.00179
43.87100	293.6922	15.00176
43.90434	293.7256	15.00174
43.93766	293.7592	15.00177
43.97100	293.7924	15.00180
44.00434	293.8272	15.00182
44.03766	293.8594	15.00179
44.07100	293.8914	15.00171
44.10434	293.9264	15.00172
44.13766	293.9596	15.00185
44.17100	293.9920	15.00189
44.20434	294.0255	15.00183
44.23766	294.0606	15.00195
44.27100	294.0940	15.00202
44.30434	294.1258	15.00196
44.33766	294.1584	15.00190
44.37100	294.1912	15.00182
44.40434	294.2262	15.00188
44.43766	294.2592	15.00211
44.47100	294.2930	15.00213
44.50434	294.3270	15.00209
44.53766	294.3610	15.00216
44.57100	294.3938	15.00220
44.60434	294.4284	15.00226
44.63766	294.4611	15.00232
44.67084	294.4944	15.00219
44.70416	294.5287	15.00208
44.73750	294.5644	15.00211
44.77083	294.5966	15.00216
44.80416	294.6299	15.00212
44.83783	294.6629	15.00213
44.87117	294.6965	15.00212
44.90450	294.7297	15.00215
44.93783	294.7632	15.00220
44.97117	294.7982	15.00226
45.00434	294.8313	15.00228
45.03766	294.8638	15.00228
45.07100	294.8973	15.00230
45.10434	294.9306	15.00232
45.13766	294.9651	15.00231
45.17100	294.9976	15.00236
45.20434	295.0298	15.00232
45.23766	295.0629	15.00230
45.27100	295.0966	15.00233
45.30434	295.1288	15.00234
45.33766	295.1619	15.00226
45.37084	295.1956	15.00226
45.40417	295.2289	15.00231
45.43750	295.2627	15.00233
45.47117	295.2954	15.00240
45.50450	295.3290	15.00247
45.53784	295.3629	15.00256
45.57117	295.3966	15.00255
45.60450	295.4274	15.00255
45.63783	295.4637	15.00245
45.67117	295.4961	15.00247
45.70434	295.5296	15.00244
45.73766	295.5638	15.00249
45.77100	295.5956	15.00247
45.80600	295.6317	15.00252
45.84100	295.6670	15.00264
45.87433	295.7006	15.00266
45.90766	295.7335	15.00261
45.94100	295.7666	15.00257
45.97516	295.8008	15.00255
46.00934	295.8342	15.00272
46.04266	295.8672	15.00269
46.07600	295.8994	15.00250
46.10933	295.9344	15.00246
46.14266	295.9680	15.00256
46.17600	296.0015	15.00260
46.20917	296.0343	15.00256
46.24250	296.0684	15.00256
46.27584	296.1007	15.00260
46.30917	296.1312	15.00250
46.34250	296.1679	15.00261
46.37583	296.2006	15.00279
46.40950	296.2346	15.00282
46.44283	296.2692	15.00280
46.47617	296.3008	15.00287
46.50950	296.3320	15.00278
46.54283	296.3656	15.00273
46.57617	296.3996	15.00279
46.60950	296.4335	15.00283
46.64283	296.4647	15.00276
46.67617	296.4996	15.00263
46.70933	296.5332	15.00275
46.74267	296.5659	15.00281
46.77600	296.5984	15.00287
46.80933	296.6328	15.00293
46.84266	296.6662	15.00308
46.87600	296.6997	15.00306
46.90933	296.7338	15.00296
46.94266	296.7685	15.00301
46.97600	296.8018	15.00312
47.00934	296.8347	15.00305
47.04266	296.8682	15.00312
47.07600	296.9013	15.00320
47.10933	296.9353	15.00320
47.14266	296.9675	15.00321
47.17600	297.0015	15.00316
47.20933	297.0352	15.00314
47.24267	297.0686	15.00314
47.27600	297.1015	15.00317
47.30933	297.1350	15.00319
47.34266	297.1671	15.00320
47.37583	297.2014	15.00314
47.40917	297.2358	15.00326
47.44250	297.2674	15.00341
47.47584	297.2998	15.00332
47.50950	297.3344	15.00328
47.54283	297.3667	15.00331
47.57617	297.4000	15.00329
47.60950	297.4336	15.00330
47.64283	297.4661	15.00340
47.67617	297.5011	15.00341
47.70950	297.5372	15.00356
47.74267	297.5701	15.00366
47.77600	297.6034	15.00358
47.80933	297.6361	15.00354
47.84266	297.6690	15.00352
47.87600	297.7020	15.00352
47.90933	297.7340	15.00345
47.94266	297.7687	15.00342
47.97600	297.8035	15.00355
48.00934	297.8380	15.00370
48.04266	297.8670	15.00367
48.07600	297.9000	15.00339
48.10933	297.9350	15.00354
48.14266	297.9673	15.00368
48.17600	298.0008	15.00374
48.20933	298.0362	15.00370
48.24267	298.0681	15.00371
48.27600	298.1007	15.00361
48.30933	298.1344	15.00369
48.34266	298.1670	15.00375
48.37600	298.2016	15.00375
48.40933	298.2352	15.00381
48.44266	298.2685	15.00376
48.47584	298.3036	15.00373
48.50917	298.3371	15.00376
48.54283	298.3724	15.00383
48.57617	298.4039	15.00387
48.60950	298.4358	15.00380
48.64283	298.4697	15.00382
48.67700	298.5041	15.00383
48.71100	298.5377	15.00382
48.74434	298.5705	15.00384
48.77766	298.6035	15.00383
48.81100	298.6385	15.00391
48.84600	298.6722	15.00387
48.88100	298.7087	15.00390
48.91434	298.7426	15.00397
48.94766	298.7750	15.00404
48.98100	298.8076	15.00405
49.01516	298.8416	15.00406
49.04933	298.8772	15.00420
49.08267	298.9082	15.00422
49.11600	298.9404	15.00413
49.14934	298.9728	15.00419
49.18350	299.0083	15.00424
49.21766	299.0422	15.00425
49.25100	299.0750	15.00420
49.28433	299.1082	15.00418
49.31750	299.1424	15.00424
49.35166	299.1754	15.00429
49.38584	299.2093	15.00428
49.41950	299.2426	15.00426
49.45284	299.2759	15.00426
49.48617	299.3091	15.00429
49.52117	299.3440	15.00434
49.55617	299.3790	15.00446
49.58933	299.4144	15.00446
49.62266	299.4456	15.00458
49.65600	299.4778	15.00444
49.69016	299.5142	15.00440
49.72434	299.5462	15.00453
49.75766	299.5809	15.00449
49.79100	299.6145	15.00462
49.82434	299.6487	15.00468
49.85850	299.6844	15.00467
49.89266	299.7162	15.00468
49.92600	299.7494	15.00459
49.95917	299.7836	15.00466
49.99250	299.8170	15.00466
50.02666	299.8504	15.00469
50.06116	299.8836	15.00459
50.09450	299.9192	15.00467
50.12784	299.9521	15.00476
50.16117	299.9848	15.00474
50.19617	300.0189	15.00468
50.23117	300.0537	15.00466
50.26450	300.0872	15.00458
50.29766	300.1201	15.00467
50.33100	300.1532	15.00469
50.36516	300.1870	15.00464
50.39934	300.2228	15.00467
50.43266	300.2560	15.00471
50.46600	300.2878	15.00472
50.49933	300.3208	15.00471
50.53350	300.3556	15.00470
50.56766	300.3894	15.00474
50.60100	300.4238	15.00479
50.63434	300.4570	15.00481
50.66766	300.4911	15.00478
50.70183	300.5254	15.00480
50.73600	300.5595	15.00484
50.76933	300.5922	15.00483
50.80266	300.6269	15.00484
50.83584	300.6604	15.00485
50.86917	300.6940	15.00484
50.90283	300.7280	15.00483
50.93616	300.7610	15.00484
50.96950	300.7950	15.00491
51.00284	300.8285	15.00492
51.03617	300.8606	15.00492
51.06933	300.8935	15.00494
51.10266	300.9268	15.00496
51.13600	300.9604	15.00498
51.16934	300.9944	15.00500
51.20266	301.0286	15.00503
51.23600	301.0620	15.00504
51.26934	301.0934	15.00508
51.30266	301.1272	15.00513
51.33600	301.1598	15.00516
51.36934	301.1935	15.00519
51.40250	301.2280	15.00525
51.43584	301.2608	15.00525
51.46916	301.2944	15.00526
51.50283	301.3284	15.00529
51.53617	301.3615	15.00533
51.56950	301.3944	15.00538
51.60283	301.4278	15.00545
51.63616	301.4625	15.00553
51.66934	301.4956	15.00558
51.70266	301.5276	15.00550
51.73600	301.5606	15.00545
51.76934	301.5932	15.00548
51.80266	301.6252	15.00554
51.83600	301.6589	15.00550
51.86934	301.6934	15.00548
51.90266	301.7266	15.00551
51.93600	301.7585	15.00550
51.96934	301.7925	15.00552
52.00266	301.8256	15.00550
52.03600	301.8600	15.00549
52.06933	301.8936	15.00552
52.10266	301.9263	15.00561
52.13584	301.9590	15.00568
52.16916	301.9923	15.00565
52.20250	302.0265	15.00561
52.23617	302.0604	15.00562
52.26950	302.0941	15.00567
52.30283	302.1268	15.00572
52.33617	302.1610	15.00572
52.36950	302.1944	15.00579
52.40283	302.2278	15.00577
52.43616	302.2627	15.00576
52.46950	302.2958	15.00588
52.50283	302.3284	15.00591
52.53600	302.3617	15.00590
52.56933	302.3953	15.00590
52.60266	302.4289	15.00596
52.63600	302.4615	15.00605
52.66934	302.4947	15.00603
52.70266	302.5282	15.00598
52.73600	302.5615	15.00598
52.76934	302.5947	15.00598
52.80266	302.6286	15.00602
52.83600	302.6619	15.00604
52.86934	302.6958	15.00603
52.90266	302.7294	15.00604
52.93600	302.7608	15.00612
52.96934	302.7945	15.00616
53.00266	302.8280	15.00610
53.03584	302.8622	15.00610
53.06916	302.8957	15.00611
53.10250	302.9282	15.00619
53.13616	302.9631	15.00622
53.16950	302.9949	15.00638
53.20283	303.0266	15.00640
53.23618	303.0620	15.00636
53.26950	303.0961	15.00638
53.30266	303.1292	15.00646
53.33600	303.1626	15.00641
53.36934	303.1956	15.00636
53.40266	303.2266	15.00630
53.43600	303.2654	15.00612
53.46934	303.2946	15.00636
53.50266	303.3310	15.00631
53.53600	303.3633	15.00664
53.57100	303.3985	15.00639
53.60600	303.4291	15.00650
53.63933	303.4632	15.00647
53.67266	303.4965	15.00644
53.70600	303.5314	15.00644
53.74016	303.5660	15.00646
53.77434	303.5999	15.00649
53.80766	303.6316	15.00649
53.84100	303.6676	15.00646
53.87434	303.7008	15.00656
53.90850	303.7362	15.00672
53.94266	303.7702	15.00691
53.97600	303.8002	15.00662
54.00933	303.8376	15.00687
54.04268	303.8700	15.00700
54.07683	303.9065	15.00718
54.11100	303.9366	15.00701
54.14434	303.9695	15.00696
54.17766	304.0004	15.00691
54.21100	304.0360	15.00684
54.24434	304.0698	15.00697
54.27750	304.1020	15.00698
54.31084	304.1368	15.00699
54.34416	304.1698	15.00701
54.37783	304.2030	15.00705
54.41118	304.2361	15.00707
54.44450	304.2706	15.00714
54.47783	304.3028	15.00716
54.51116	304.3372	15.00716
54.54450	304.3698	15.00717
54.57783	304.4031	15.00721
54.61118	304.4367	15.00726
54.64450	304.4699	15.00727
54.67783	304.5043	15.00727
54.71118	304.5370	15.00725
54.74450	304.5698	15.00731
54.77783	304.6034	15.00739
54.81116	304.6387	15.00750
54.84450	304.6699	15.00755
54.87783	304.7024	15.00747
54.91118	304.7360	15.00746
54.94450	304.7687	15.00744
54.97783	304.8005	15.00742
55.01116	304.8329	15.00735
55.04450	304.8684	15.00729
55.07783	304.9017	15.00740
55.11118	304.9348	15.00739
55.14450	304.9678	15.00742
55.17783	304.9984	15.00756
55.21118	305.0325	15.00746
55.24450	305.0660	15.00754
55.27783	305.0994	15.00762
55.31116	305.1338	15.00766
55.34450	305.1675	15.00764
55.37783	305.1999	15.00769
55.41118	305.2332	15.00768
55.44450	305.2674	15.00764
55.47783	305.3010	15.00771
55.51116	305.3335	15.00771
55.54450	305.3653	15.00765
55.57783	305.4006	15.00762
55.61118	305.4340	15.00762
55.64450	305.4678	15.00772
55.67783	305.5010	15.00788
55.71118	305.5366	15.00781
55.74450	305.5700	15.00789
55.77783	305.6022	15.00793
55.81116	305.6360	15.00783
55.84450	305.6686	15.00784
55.87783	305.7017	15.00788
55.91118	305.7364	15.00791
55.94450	305.7695	15.00788
55.97783	305.8027	15.00790
56.01116	305.8358	15.00791
56.04450	305.8701	15.00792
56.07766	305.9034	15.00792
56.11100	305.9360	15.00792
56.14434	305.9690	15.00798
56.17766	306.0020	15.00796
56.21100	306.0351	15.00799
56.24434	306.0674	15.00809
56.27766	306.1006	15.00812
56.31100	306.1338	15.00810
56.34434	306.1665	15.00811
56.37766	306.2020	15.00805
56.41100	306.2340	15.00807
56.44433	306.2676	15.00799
56.47766	306.3013	15.00809
56.51100	306.3352	15.00808
56.54434	306.3682	15.00813
56.57766	306.4021	15.00815
56.61100	306.4346	15.00821
56.64434	306.4678	15.00820
56.67766	306.5005	15.00813
56.71100	306.5353	15.00813
56.74434	306.5682	15.00826
56.77766	306.6009	15.00826
56.81100	306.6348	15.00821
56.84434	306.6684	15.00821
56.87766	306.7020	15.00823
56.91100	306.7348	15.00826
56.94600	306.7712	15.00830
56.98100	306.8062	15.00837
57.01433	306.8388	15.00834
57.04766	306.8728	15.00832
57.08100	306.9067	15.00841
57.11600	306.9410	15.00847
57.15100	306.9767	15.00845
57.18433	307.0093	15.00843
57.21766	307.0438	15.00852
57.25100	307.0768	15.00862
57.28433	307.1106	15.00868
57.31766	307.1428	15.00860
57.35100	307.1756	15.00864
57.38433	307.2095	15.00864
57.41768	307.2420	15.00869
57.45183	307.2773	15.00873
57.48600	307.3115	15.00874
57.51934	307.3469	15.00878
57.55266	307.3787	15.00880
57.58600	307.4097	15.00874
57.61934	307.4442	15.00870
57.65266	307.4800	15.00899
57.68600	307.5114	15.00912
57.71934	307.5435	15.00890
57.75266	307.5777	15.00878
57.78600	307.6118	15.00886
57.81933	307.6447	15.00889
57.85266	307.6766	15.00887
57.88600	307.7094	15.00888
57.91934	307.7426	15.00887
57.95266	307.7764	15.00885
57.98600	307.8090	15.00894
58.01934	307.8428	15.00892
58.05266	307.8756	15.00887
58.08600	307.9088	15.00887
58.11934	307.9418	15.00894
58.15266	307.9752	15.00897
58.18600	308.0088	15.00898
58.21934	308.0403	15.00899
58.25266	308.0737	15.00896
58.28600	308.1072	15.00898
58.31933	308.1408	15.00903
58.35266	308.1730	15.00907
58.38600	308.2066	15.00906
58.41934	308.2400	15.00906
58.45266	308.2747	15.00912
58.48600	308.3082	15.00917
58.51934	308.3413	15.00915
58.55266	308.3755	15.00919
58.58600	308.4110	15.00931
58.61934	308.4425	15.00937
58.65266	308.4779	15.00935
58.68600	308.5101	15.00942
58.71934	308.5446	15.00940
58.75266	308.5774	15.00940
58.78600	308.6107	15.00936
58.81933	308.6432	15.00935
58.85266	308.6766	15.00936
58.88600	308.7105	15.00938
58.91934	308.7438	15.00937
58.95250	308.7780	15.00950
58.98584	308.8125	15.00952
59.01916	308.8462	15.00955
59.05250	308.8789	15.00954
59.08584	308.9121	15.00956
59.11916	308.9452	15.00964
59.15250	308.9772	15.00969
59.18584	309.0108	15.00970
59.21916	309.0457	15.00972
59.25250	309.0776	15.00976
59.28584	309.1117	15.00975
59.31916	309.1453	15.00982
59.35250	309.1782	15.00987
59.38584	309.2122	15.00982
59.41916	309.2447	15.00980
59.45250	309.2783	15.00985
59.48584	309.3086	15.00986
59.51916	309.3432	15.00974
59.55250	309.3768	15.00982
59.58584	309.4095	15.00985
59.61916	309.4434	15.00986
59.65250	309.4776	15.00991
59.68584	309.5118	15.00989
59.71916	309.5435	15.00990
59.75250	309.5782	15.00996
59.78584	309.6115	15.01005
59.81916	309.6422	15.01003
59.85250	309.6775	15.01004
59.88584	309.7110	15.01010
59.91916	309.7455	15.01014
59.95250	309.7796	15.01022
59.98584	309.8112	15.01027
60.01916	309.8461	15.01028
60.05250	309.8786	15.01030
60.08584	309.9127	15.01025
60.11934	309.9454	15.01038
60.15266	309.9765	15.01025
60.18600	310.0110	15.01016
60.21934	310.0452	15.01023
60.25266	310.0787	15.01033
60.28600	310.1117	15.01039
60.32016	310.1459	15.01039
60.35434	310.1794	15.01037
60.38766	310.2119	15.01038
60.42100	310.2465	15.01042
60.45434	310.2796	15.01058
60.48933	310.3148	15.01064
60.52434	310.3501	15.01075
60.55766	310.3823	15.01067
60.59100	310.4177	15.01059
60.62434	310.4497	15.01061
60.65850	310.4842	15.01060
60.69266	310.5192	15.01072
60.72600	310.5510	15.01082
60.75950	310.5854	15.01086
60.79283	310.6161	15.01091
60.82700	310.6508	15.01078
60.86118	310.6850	15.01088
60.89450	310.7187	15.01092
60.92783	310.7533	15.01099
60.96118	310.7868	15.01114
60.99617	310.8200	15.01115
61.03116	310.8574	15.01099
61.06450	310.8911	15.01104
61.09783	310.9231	15.01107
61.13118	310.9569	15.01106
61.16500	310.9895	15.01102
61.19916	311.0232	15.01100
61.23250	311.0550	15.01084
61.26582	311.0907	15.01089
61.29918	311.1224	15.01106
61.33332	311.1546	15.01098
61.36750	311.1898	15.01098
61.40082	311.2251	15.01104
61.43433	311.2575	15.01110
61.46766	311.2914	15.01119
61.50184	311.3245	15.01117
61.53600	311.3584	15.01118
61.56933	311.3932	15.01122
61.60266	311.4262	15.01123
61.63600	311.4596	15.01124
61.67016	311.4941	15.01127
61.70434	311.5280	15.01127
61.73766	311.5610	15.01126
61.77100	311.5950	15.01130
61.80434	311.6280	15.01138
61.83933	311.6635	15.01139
61.87434	311.6988	15.01137
61.90766	311.7310	15.01138
61.94100	311.7635	15.01139
61.97434	311.7950	15.01144
62.00867	311.8299	15.01150
62.04283	311.8647	15.01149
62.07617	311.8990	15.01146
62.10950	311.9331	15.01149
62.14283	311.9657	15.01154
62.17700	312.0000	15.01154
62.21118	312.0338	15.01156
62.24450	312.0678	15.01161
62.27783	312.1010	15.01160
62.31116	312.1342	15.01166
62.34533	312.1674	15.01167
62.37916	312.2006	15.01170
62.41250	312.2352	15.01170
62.44584	312.2691	15.01180
62.47934	312.3024	15.01192
62.51433	312.3367	15.01187
62.54932	312.3726	15.01184
62.58266	312.4061	15.01182
62.61600	312.4384	15.01180
62.64934	312.4722	15.01184
62.68266	312.5065	15.01187
62.71600	312.5398	15.01187
62.74934	312.5730	15.01185
62.78266	312.6054	15.01186
62.81600	312.6390	15.01192
62.84934	312.6704	15.01182
62.88266	312.7035	15.01164
62.91600	312.7375	15.01167
62.94934	312.7744	15.01190
62.98284	312.8065	15.01216
63.01617	312.8384	15.01207
63.04950	312.8716	15.01203
63.08283	312.9056	15.01202
63.11616	312.9382	15.01210
63.14916	312.9711	15.01208
63.18250	313.0042	15.01201
63.21600	313.0387	15.01199
63.24934	313.0720	15.01205
63.28266	313.1050	15.01214
63.31600	313.1389	15.01220
63.34934	313.1738	15.01230
63.38266	313.2080	15.01229
63.41600	313.2422	15.01220
63.44934	313.2766	15.01223
63.48266	313.3091	15.01226
63.51600	313.3421	15.01224
63.54950	313.3754	15.01231
63.58283	313.4082	15.01239
63.61616	313.4340	15.01231
63.64950	313.4785	15.01211
63.68250	313.5076	15.01252
63.71582	313.5411	15.01250
63.74934	313.5754	15.01276
63.78266	313.6058	15.01244
63.81600	313.6395	15.01246
63.84934	313.6680	15.01250
63.88266	313.7100	15.01223
63.91600	313.7407	15.01263
63.94934	313.7765	15.01292
63.98266	313.8058	15.01258
64.01600	313.8393	15.01253
64.04932	313.8738	15.01261
64.08266	313.9068	15.01287
64.11616	313.9398	15.01274
64.14950	313.9744	15.01267
64.18283	314.0082	15.01266
64.21616	314.0414	15.01264
64.24950	314.0730	15.01271
64.28250	314.1060	15.01276
64.31582	314.1389	15.01276
64.34918	314.1736	15.01274
64.38266	314.2068	15.01277
64.41600	314.2400	15.01278
64.44934	314.2728	15.01278
64.48266	314.3079	15.01282
64.51600	314.3398	15.01279
64.54932	314.3732	15.01279
64.58266	314.4060	15.01279
64.61600	314.4403	15.01283
64.64932	314.4736	15.01289
64.68266	314.5063	15.01291
64.71600	314.5405	15.01294
64.74934	314.5738	15.01298
64.78266	314.6068	15.01301
64.81617	314.6394	15.01299
64.84950	314.6742	15.01298
64.88284	314.7060	15.01308
64.91617	314.7403	15.01311
64.94950	314.7752	15.01317
64.98250	314.8088	15.01318
65.01582	314.8418	15.01319
65.04916	314.8754	15.01317
65.08266	314.9092	15.01321
65.11600	314.9419	15.01322
65.14932	314.9731	15.01320
65.18266	315.0084	15.01313
65.21684	315.0440	15.01326
65.25100	315.0783	15.01326
65.28433	315.1112	15.01331
65.31766	315.1472	15.01345
65.35100	315.1768	15.01354
65.38516	315.2110	15.01338
65.41934	315.2455	15.01338
65.45266	315.2794	15.01342
65.48600	315.3120	15.01344
65.51934	315.3450	15.01341
65.55434	315.3809	15.01339
65.58932	315.4150	15.01345
65.62282	315.4482	15.01350
65.65616	315.4818	15.01348
65.68950	315.5149	15.01354
65.72366	315.5488	15.01355
65.75784	315.5836	15.01359
65.79116	315.6168	15.01366
65.82450	315.6509	15.01376
65.85784	315.6834	15.01381
65.89200	315.7182	15.01378
65.92584	315.7510	15.01380
65.95918	315.7838	15.01383
65.99250	315.8192	15.01384
66.02582	315.8524	15.01394
66.06000	315.8834	15.01389
66.09432	315.9187	15.01384
66.12768	315.9534	15.01398
66.16100	315.9850	15.01407
66.19434	316.0217	15.01401
66.22766	316.0550	15.01402
66.26100	316.0878	15.01399
66.29434	316.1230	15.01394
66.32766	316.1550	15.01411
66.36100	316.1860	15.01399
66.39434	316.2184	15.01390
66.42766	316.2515	15.01402
66.46100	316.2843	15.01409
66.49432	316.3158	15.01406
66.52766	316.3505	15.01407
66.56100	316.3832	15.01413
66.59450	316.4159	15.01411
66.62782	316.4500	15.01414
66.66116	316.4808	15.01413
66.69450	316.5175	15.01400
66.72750	316.5496	15.01415
66.76084	316.5830	15.01414
66.79434	316.6190	15.01422
66.82766	316.6500	15.01443
66.86100	316.6848	15.01433
66.89434	316.7180	15.01437
66.92766	316.7510	15.01441
66.96100	316.7838	15.01436
66.99432	316.8164	15.01432
67.02766	316.8503	15.01436
67.06100	316.8825	15.01439
67.09432	316.9169	15.01441
67.12782	316.9500	15.01454
67.16116	316.9834	15.01464
67.19450	317.0172	15.01470
67.22784	317.0512	15.01472
67.26118	317.0847	15.01471
67.29416	317.1174	15.01474
67.32750	317.1500	15.01480
67.36100	317.1845	15.01475
67.39434	317.2180	15.01472
67.42766	317.2504	15.01476
67.46100	317.2840	15.01473
67.49432	317.3176	15.01474
67.52766	317.3508	15.01481
67.56100	317.3840	15.01484
67.59432	317.4164	15.01482
67.62768	317.4507	15.01489
67.66100	317.4820	15.01487
67.69450	317.5150	15.01485
67.72784	317.5508	15.01492
67.76118	317.5834	15.01508
67.79450	317.6156	15.01502
67.82750	317.6498	15.01497
67.86084	317.6828	15.01496
67.89434	317.7166	15.01498
67.92766	317.7500	15.01500
67.96100	317.7827	15.01506
67.99432	317.8160	15.01503
68.02766	317.8498	15.01502
68.06100	317.8830	15.01515
68.09432	317.9166	15.01518
68.12768	317.9490	15.01516
68.16100	317.9839	15.01516
68.19450	318.0158	15.01523
68.22784	318.0506	15.01524
68.26118	318.0833	15.01527
68.29450	318.1167	15.01517
68.32782	318.1513	15.01524
68.36084	318.1855	15.01528
68.39416	318.2176	15.01531
68.42750	318.2508	15.01536
68.46100	318.2842	15.01540
68.49432	318.3182	15.01547
68.52766	318.3496	15.01555
68.56100	318.3843	15.01548
68.59432	318.4175	15.01542
68.62768	318.4515	15.01547
68.66100	318.4837	15.01548
68.69434	318.5174	15.01542
68.72766	318.5523	15.01549
68.76100	318.5850	15.01552
68.79434	318.6184	15.01557
68.82782	318.6504	15.01560
68.86118	318.6844	15.01566
68.89450	318.7176	15.01563
68.92866	318.7520	15.01566
68.96250	318.7870	15.01569
68.99584	318.8196	15.01572
69.02934	318.8526	15.01573
69.06268	318.8856	15.01577
69.09766	318.9200	15.01576
69.13266	318.9549	15.01581
69.16600	318.9882	15.01580
69.19934	319.0206	15.01576
69.23266	319.0556	15.01572
69.26684	319.0895	15.01584
69.30100	319.1228	15.01589
69.33450	319.1578	15.01590
69.36782	319.1908	15.01592
69.40118	319.2259	15.01591
69.43500	319.2604	15.01598
69.46918	319.2930	15.01598
69.50268	319.3248	15.01586
69.53600	319.3606	15.01587
69.56934	319.3968	15.01599
69.60266	319.4276	15.01614
69.63600	319.4619	15.01608
69.66934	319.4953	15.01613
69.70266	319.5285	15.01624
69.73600	319.5621	15.01628
69.76934	319.5954	15.01626
69.80266	319.6280	15.01631
69.83600	319.6635	15.01630
69.86932	319.6972	15.01646
69.90266	319.7302	15.01645
69.93616	319.7636	15.01646
69.96950	319.7962	15.01644
70.00282	319.8296	15.01650
70.03616	319.8624	15.01646
70.06950	319.8965	15.01639
70.10284	319.9310	15.01643
70.13618	319.9642	15.01656
70.16950	319.9982	15.01656
70.20282	320.0322	15.01654
70.23618	320.0653	15.01659
70.26950	320.0972	15.01664
70.30282	320.1318	15.01657
70.33582	320.1652	15.01666
70.36916	320.1990	15.01673
70.40250	320.2322	15.01680
70.43584	320.2662	15.01673
70.46918	320.2992	15.01680
70.50268	320.3322	15.01679
70.53600	320.3659	15.01676
70.56934	320.3988	15.01683
70.60266	320.4312	15.01683
70.63600	320.4634	15.01682
70.66934	320.4976	15.01684
70.70266	320.5306	15.01686
70.73600	320.5640	15.01687
70.76934	320.5987	15.01692
70.80266	320.6306	15.01703
70.83600	320.6638	15.01695
70.86932	320.6965	15.01701
70.90266	320.7308	15.01704
70.93600	320.7637	15.01704
70.96932	320.7968	15.01700
71.00268	320.8306	15.01694
71.03600	320.8622	15.01699
71.06934	320.8961	15.01700
71.10266	320.9283	15.01704
71.13600	320.9634	15.01709
71.16934	320.9965	15.01715
71.20266	321.0285	15.01714
71.23600	321.0630	15.01712
71.26934	321.0966	15.01716
71.30266	321.1295	15.01722
71.33600	321.1622	15.01726
71.36950	321.1969	15.01726
71.40282	321.2292	15.01729
71.43616	321.2620	15.01727
71.46950	321.2947	15.01726
71.50282	321.3290	15.01732
71.53616	321.3626	15.01740
71.56950	321.3960	15.01736
71.60284	321.4296	15.01736
71.63618	321.4621	15.01740
71.66950	321.4950	15.01737
71.70282	321.5289	15.01739
71.73618	321.5619	15.01741
71.76950	321.5964	15.01741
71.80282	321.6294	15.01742
71.83618	321.6624	15.01739
71.86950	321.6938	15.01736
71.90282	321.7278	15.01738
71.93616	321.7616	15.01742
71.96950	321.7948	15.01749
72.00282	321.8280	15.01753
72.03616	321.8607	15.01755
72.06950	321.8940	15.01760
72.10250	321.9259	15.01767
72.13584	321.9606	15.01771
72.16916	321.9933	15.01766
72.20250	322.0264	15.01768
72.23584	322.0604	15.01768
72.26916	322.0944	15.01777
72.30332	322.1287	15.01767
72.33750	322.1631	15.01774
72.37084	322.1966	15.01782
72.40418	322.2312	15.01781
72.43750	322.2617	15.01786
72.47250	322.2975	15.01780
72.50766	322.3318	15.01784
72.54100	322.3650	15.01777
72.57434	322.3985	15.01785
72.60766	322.4314	15.01794
72.64184	322.4662	15.01789
72.67600	322.5007	15.01784
72.70934	322.5332	15.01788
72.74268	322.5670	15.01789
72.77600	322.6012	15.01801
72.81016	322.6346	15.01803
72.84432	322.6676	15.01796
72.87768	322.7009	15.01789
72.91100	322.7348	15.01794
72.94434	322.7689	15.01799
72.97850	322.8028	15.01803
73.01266	322.8375	15.01803
73.04600	322.8715	15.01805
73.07934	322.9046	15.01808
73.11266	322.9365	15.01814
73.14600	322.9698	15.01816
73.17934	323.0038	15.01814
73.21268	323.0371	15.01814
73.24600	323.0702	15.01816
73.27934	323.1035	15.01820
73.31268	323.1365	15.01828
73.34600	323.1702	15.01822
73.37934	323.2040	15.01823
73.41266	323.2374	15.01824
73.44600	323.2704	15.01828
73.47934	323.3040	15.01832
73.51266	323.3379	15.01836
73.54600	323.3709	15.01840
73.57934	323.4038	15.01838
73.61266	323.4374	15.01841
73.64600	323.4715	15.01851
73.67934	323.5037	15.01848
73.71268	323.5369	15.01844
73.74600	323.5685	15.01843
73.77934	323.6058	15.01843
73.81268	323.6378	15.01864
73.84600	323.6700	15.01862
73.87934	323.7044	15.01862
73.91266	323.7376	15.01865
73.94600	323.7700	15.01868
73.97934	323.8029	15.01869
74.01266	323.8354	15.01871
74.04600	323.8698	15.01867
74.07934	323.9034	15.01862
74.11266	323.9368	15.01866
74.14600	323.9702	15.01871
74.17934	324.0040	15.01876
74.21268	324.0358	15.01881
74.24600	324.0702	15.01876
74.27950	324.1039	15.01878
74.31284	324.1362	15.01883
74.34616	324.1694	15.01877
74.37950	324.2039	15.01874
74.41284	324.2378	15.01882
74.44616	324.2690	15.01884
74.47950	324.3030	15.01884
74.51282	324.3364	15.01884
74.54616	324.3691	15.01890
74.57950	324.4018	15.01892
74.61282	324.4366	15.01899
74.64616	324.4686	15.01904
74.67950	324.5022	15.01902
74.71282	324.5350	15.01901
74.74616	324.5688	15.01903
74.77950	324.6026	15.01906
74.81284	324.6378	15.01913
74.84616	324.6676	15.01915
74.87950	324.7037	15.01900
74.91284	324.7370	15.01900
74.94616	324.7712	15.01908
74.97950	324.8050	15.01918
75.01282	324.8375	15.01918
75.04616	324.8720	15.01921
75.07950	324.9052	15.01924
75.11282	324.9389	15.01927
75.14616	324.9705	15.01926
75.17950	325.0052	15.01925
75.21282	325.0379	15.01924
75.24616	325.0718	15.01927
75.27950	325.1059	15.01934
75.31284	325.1398	15.01942
75.34616	325.1715	15.01942
75.37950	325.2045	15.01944
75.41284	325.2379	15.01951
75.44616	325.2705	15.01953
75.47950	325.3045	15.01946
75.51282	325.3380	15.01950
75.54616	325.3700	15.01953
75.57950	325.4048	15.01954
75.61282	325.4384	15.01964
75.64616	325.4699	15.01974
75.67950	325.5037	15.01970
75.71282	325.5380	15.01974
75.74584	325.5714	15.01973
75.77918	325.6042	15.01971
75.81250	325.6380	15.01981
75.84750	325.6730	15.01990
75.88250	325.7080	15.01997
75.91600	325.7418	15.01993
75.94934	325.7760	15.02001
75.98266	325.8094	15.01998
76.01684	325.8438	15.01998
76.05100	325.8787	15.02000
76.08434	325.9106	15.02009
76.11768	325.9449	15.01995
76.15100	325.9786	15.02004
76.18516	326.0146	15.02007
76.21932	326.0440	15.02011
76.25268	326.0771	15.02003
76.28600	326.1104	15.02011
76.31934	326.1449	15.02014
76.35434	326.1789	15.02013
76.38934	326.2144	15.02011
76.42266	326.2460	15.02018
76.45600	326.2766	15.02015
76.48950	326.3120	15.02015
76.52368	326.3464	15.02019
76.55782	326.3805	15.02016
76.59116	326.4120	15.02015
76.62450	326.4441	15.02011
76.65750	326.4778	15.02011
76.69082	326.5127	15.02016
76.72434	326.5442	15.02024
76.75766	326.5782	15.02030
76.79100	326.6108	15.02030
76.82434	326.6455	15.02023
76.85766	326.6788	15.02030
76.89100	326.7125	15.02036
76.92432	326.7456	15.02034
76.95766	326.7786	15.02032
76.99100	326.8115	15.02029
77.02450	326.8448	15.02032
77.05782	326.8783	15.02036
77.09116	326.9121	15.02045
77.12450	326.9439	15.02042
77.15750	326.9776	15.02033
77.19082	327.0115	15.02035
77.22418	327.0460	15.02040
77.25766	327.0794	15.02044
77.29100	327.1114	15.02047
77.32434	327.1446	15.02047
77.35766	327.1779	15.02039
77.39100	327.2135	15.02048
77.42432	327.2474	15.02050
77.45766	327.2799	15.02054
77.49100	327.3140	15.02066
77.52432	327.3460	15.02066
77.55766	327.3802	15.02070
77.59116	327.4131	15.02078
77.62450	327.4438	15.02072
77.65784	327.4780	15.02054
77.69116	327.5113	15.02058
77.72450	327.5452	15.02064
77.75750	327.5793	15.02064
77.79082	327.6116	15.02066
77.82434	327.6451	15.02074
77.85766	327.6795	15.02082
77.89100	327.7131	15.02087
77.92432	327.7474	15.02094
77.95766	327.7810	15.02100
77.99100	327.8141	15.02096
78.02432	327.8486	15.02095
78.05766	327.8812	15.02093
78.09100	327.9148	15.02090
78.12434	327.9475	15.02094
78.15766	327.9811	15.02095
78.19100	328.0141	15.02106
78.22434	328.0482	15.02110
78.25784	328.0817	15.02124
78.29116	328.1165	15.02129
78.32450	328.1508	15.02124
78.35784	328.1867	15.02116
78.39116	328.2183	15.02119
78.42450	328.2514	15.02116
78.45782	328.2845	15.02120
78.49116	328.3160	15.02124
78.52450	328.3504	15.02115
78.55782	328.3836	15.02115
78.59116	328.4182	15.02120
78.62418	328.4513	15.02129
78.65750	328.4838	15.02127
78.69082	328.5175	15.02125
78.72418	328.5544	15.02141
78.75766	328.5844	15.02154
78.79100	328.6150	15.02126
78.82434	328.6501	15.02120
78.85766	328.6826	15.02129
78.89100	328.7153	15.02133
78.92432	328.7478	15.02131
78.95766	328.7820	15.02133
78.99100	328.8155	15.02139
79.02432	328.8489	15.02134
79.05766	328.8832	15.02148
79.09100	328.9158	15.02143
79.12434	328.9476	15.02139
79.15766	328.9825	15.02133
79.19100	329.0143	15.02142
79.22516	329.0481	15.02150
79.25932	329.0817	15.02154
79.29266	329.1154	15.02154
79.32600	329.1496	15.02166
79.35934	329.1822	15.02177
79.39368	329.2174	15.02186
79.42782	329.2529	15.02190
79.46118	329.2887	15.02200
79.49450	329.3215	15.02207
79.52782	329.3539	15.02204
79.56168	329.3890	15.02179
79.59582	329.4235	15.02172
79.62916	329.4565	15.02181
79.66266	329.4896	15.02182
79.69600	329.5227	15.02181
79.73100	329.5580	15.02184
79.76600	329.5920	15.02186
79.79932	329.6244	15.02191
79.83266	329.6575	15.02196
79.86600	329.6912	15.02198
79.89932	329.7234	15.02200
79.93266	329.7572	15.02197
79.96600	329.7902	15.02202
79.99934	329.8235	15.02197
80.03266	329.8562	15.02204
80.06600	329.8899	15.02209
80.09934	329.9228	15.02211
80.13266	329.9569	15.02207
80.16600	329.9905	15.02204
80.19934	330.0228	15.02194
80.23266	330.0564	15.02207
80.26600	330.0891	15.02217
80.29932	330.1237	15.02225
80.33266	330.1568	15.02228
80.36600	330.1900	15.02222
80.39950	330.2252	15.02227
80.43282	330.2556	15.02235
80.46616	330.2893	15.02229
80.49950	330.3222	15.02224
80.53284	330.3555	15.02221
80.56616	330.3894	15.02211
80.59950	330.4244	15.02219
80.63284	330.4580	15.02251
80.66616	330.4902	15.02248
80.69916	330.5239	15.02238
80.73250	330.5559	15.02232
80.76582	330.5887	15.02231
80.79932	330.6205	15.02237
80.83266	330.6542	15.02232
80.86600	330.6882	15.02228
80.89932	330.7230	15.02232
80.93266	330.7550	15.02239
80.96600	330.7879	15.02246
80.99934	330.8208	15.02241
81.03266	330.8550	15.02234
81.06600	330.8894	15.02244
81.09934	330.9230	15.02245
81.13266	330.9570	15.02246
81.16600	330.9902	15.02246
81.19934	331.0234	15.02244
81.23266	331.0567	15.02249
81.26600	331.0906	15.02256
81.29932	331.1233	15.02260
81.33266	331.1570	15.02256
81.36600	331.1919	15.02260
81.39950	331.2222	15.02262
81.43282	331.2570	15.02258
81.46616	331.2935	15.02275
81.49950	331.3295	15.02314
81.53284	331.3610	15.02318
81.56582	331.3969	15.02306
81.59918	331.4306	15.02310
81.63266	331.4652	15.02302
81.66600	331.4994	15.02289
81.69934	331.5327	15.02287
81.73266	331.5641	15.02277
81.76600	331.5960	15.02269
81.79932	331.6297	15.02277
81.83266	331.6604	15.02280
81.86600	331.6938	15.02275
81.89932	331.7283	15.02276
81.93266	331.7591	15.02283
81.96600	331.7922	15.02278
81.99934	331.8262	15.02289
82.03266	331.8600	15.02303
82.06600	331.8941	15.02316
82.09934	331.9247	15.02306
82.13266	331.9588	15.02306
82.16600	331.9920	15.02315
82.19934	332.0260	15.02323
82.23266	332.0610	15.02334
82.26618	332.0960	15.02341
82.29950	332.1304	15.02332
82.33282	332.1641	15.02327
82.36616	332.1968	15.02326
82.39950	332.2292	15.02325
82.43368	332.2613	15.02331
82.46782	332.2950	15.02331
82.50082	332.3269	15.02328
82.53418	332.3613	15.02328
82.56750	332.3950	15.02341
82.60184	332.4277	15.02334
82.63600	332.4618	15.02331
82.66934	332.4958	15.02338
82.70266	332.5281	15.02341
82.73600	332.5600	15.02338
82.76934	332.5928	15.02337
82.80266	332.6280	15.02339
82.83600	332.6600	15.02347
82.86932	332.6915	15.02340
82.90266	332.7251	15.02327
82.93600	332.7584	15.02318
82.96932	332.7915	15.02331
83.00268	332.8245	15.02342
83.03600	332.8567	15.02349
83.06934	332.8900	15.02349
83.10266	332.9246	15.02354
83.13600	332.9572	15.02367
83.16934	332.9895	15.02367
83.20266	333.0224	15.02353
83.23600	333.0562	15.02352
83.26934	333.0899	15.02357
83.30266	333.1228	15.02360
83.33618	333.1559	15.02361
83.36950	333.1885	15.02356
83.40282	333.2248	15.02361
83.43616	333.2554	15.02376
83.46950	333.2894	15.02371
83.50250	333.3225	15.02368
83.53582	333.3558	15.02370
83.56916	333.3886	15.02375
83.60266	333.4216	15.02378
83.63600	333.4567	15.02372
83.66934	333.4919	15.02385
83.70266	333.5256	15.02379
83.73600	333.5598	15.02375
83.76934	333.5931	15.02386
83.80266	333.6246	15.02391
83.83600	333.6592	15.02385
83.86932	333.6926	15.02396
83.90266	333.7263	15.02400
83.93600	333.7591	15.02395
83.96932	333.7930	15.02397
84.00268	333.8241	15.02391
84.03601	333.8589	15.02378
84.06949	333.8942	15.02389
84.10284	333.9269	15.02401
84.13618	333.9597	15.02394
84.16950	333.9939	15.02389
84.20282	334.0269	15.02391
84.23618	334.0586	15.02392
84.26916	334.0919	15.02393
84.30250	334.1270	15.02398
84.33582	334.1590	15.02412
84.36932	334.1916	15.02410
84.40266	334.2250	15.02397
84.43600	334.2590	15.02391
84.46932	334.2930	15.02398
84.50268	334.3259	15.02401
84.53601	334.3591	15.02402
84.56934	334.3910	15.02405
84.60266	334.4250	15.02410
84.63600	334.4606	15.02424
84.66934	334.4960	15.02442
84.70266	334.5288	15.02455
84.73600	334.5624	15.02457
84.76934	334.5990	15.02468
84.80266	334.6322	15.02474
84.83600	334.6650	15.02461
84.86932	334.6980	15.02446
84.90266	334.7310	15.02439
84.93616	334.7643	15.02438
84.96949	334.7974	15.02443
85.00282	334.8291	15.02448
85.03616	334.8628	15.02442
85.06949	334.8954	15.02442
85.10284	334.9290	15.02448
85.13618	334.9618	15.02454
85.16950	334.9934	15.02453
85.20282	335.0270	15.02455
85.23582	335.0597	15.02450
85.26916	335.0939	15.02443
85.30250	335.1280	15.02452
85.33582	335.1620	15.02462
85.36916	335.1929	15.02460
85.40250	335.2275	15.02445
85.43584	335.2604	15.02447
85.46918	335.2932	15.02447
85.50268	335.3276	15.02454
85.53601	335.3595	15.02453
85.56934	335.3950	15.02454
85.60266	335.4269	15.02463
85.63600	335.4602	15.02466
85.66934	335.4946	15.02466
85.70266	335.5275	15.02468
85.73600	335.5596	15.02470
85.76934	335.5928	15.02470
85.80266	335.6270	15.02473
85.83600	335.6605	15.02474
85.86932	335.6934	15.02470
85.90266	335.7265	15.02473
85.93600	335.7601	15.02478
85.96932	335.7940	15.02482
86.00268	335.8272	15.02480
86.03601	335.8594	15.02481
86.06934	335.8924	15.02485
86.10266	335.9265	15.02492
86.13600	335.9589	15.02492
86.16934	335.9926	15.02490
86.20282	336.0258	15.02486
86.23618	336.0586	15.02484
86.26950	336.0926	15.02487
86.30282	336.1263	15.02490
86.33618	336.1592	15.02489
86.36950	336.1922	15.02488
86.40282	336.2264	15.02490
86.43616	336.2597	15.02498
86.46949	336.2937	15.02506
86.50282	336.3258	15.02497
86.53616	336.3590	15.02491
86.56949	336.3930	15.02495
86.60284	336.4264	15.02502
86.63618	336.4595	15.02509
86.66950	336.4936	15.02507
86.70282	336.5272	15.02514
86.73618	336.5590	15.02514
86.76950	336.5933	15.02516
86.80282	336.6266	15.02521
86.83618	336.6589	15.02516
86.86950	336.6937	15.02500
86.90282	336.7278	15.02508
86.93616	336.7610	15.02520
86.96949	336.7948	15.02518
87.00268	336.8294	15.02514
87.03601	336.8636	15.02516
87.06934	336.8963	15.02517
87.10266	336.9292	15.02519
87.13600	336.9630	15.02516
87.16934	336.9966	15.02514
87.20266	337.0304	15.02522
87.23600	337.0622	15.02524
87.26934	337.0962	15.02527
87.30266	337.1281	15.02535
87.33600	337.1610	15.02531
87.36950	337.1948	15.02533
87.40282	337.2277	15.02524
87.43616	337.2624	15.02517
87.46949	337.2960	15.02522
87.50282	337.3286	15.02516
87.53616	337.3607	15.02508
87.56949	337.3940	15.02503
87.60284	337.4285	15.02509
87.63618	337.4612	15.02515
87.66950	337.4949	15.02508
87.70266	337.5275	15.02510
87.73600	337.5611	15.02510
87.76934	337.5960	15.02513
87.80266	337.6272	15.02525
87.83600	337.6611	15.02515
87.86932	337.6950	15.02519
87.90266	337.7288	15.02521
87.93600	337.7636	15.02523
87.96932	337.7980	15.02539
88.00434	337.8328	15.02540
88.03934	337.8675	15.02544
88.07266	337.9014	15.02542
88.10601	337.9331	15.02534
88.13934	337.9629	15.02524
88.17350	337.9996	15.02522
88.20766	338.0325	15.02526
88.24116	338.0666	15.02524
88.27450	338.0995	15.02529
88.30782	338.1328	15.02530
88.34200	338.1660	15.02521
88.37616	338.2018	15.02524
88.40949	338.2359	15.02529
88.44282	338.2685	15.02536
88.47616	338.3018	15.02534
88.51032	338.3362	15.02530
88.54450	338.3700	15.02535
88.57782	338.4004	15.02524
88.61118	338.4370	15.02522
88.64450	338.4692	15.02534
88.67866	338.5041	15.02535
88.71282	338.5400	15.02540
88.74618	338.5700	15.02545
88.77950	338.6035	15.02540
88.81250	338.6365	15.02546
88.84750	338.6714	15.02542
88.88250	338.7062	15.02535
88.91582	338.7395	15.02538
88.94916	338.7730	15.02546
88.98250	338.8069	15.02551
89.01668	338.8405	15.02549
89.05084	338.8749	15.02547
89.08418	338.9080	15.02547
89.11750	338.9422	15.02550
89.15082	338.9752	15.02552
89.18500	339.0102	15.02548
89.21918	339.0450	15.02549
89.25250	339.0778	15.02551
89.28582	339.1114	15.02555
89.31916	339.1444	15.02554
89.35351	339.1794	15.02559
89.38766	339.2128	15.02565
89.42100	339.2459	15.02558
89.45434	339.2792	15.02563
89.48766	339.3128	15.02569
89.52101	339.3456	15.02567
89.55434	339.3788	15.02567
89.58768	339.4122	15.02570
89.62101	339.4456	15.02576
89.65434	339.4795	15.02577
89.68768	339.5130	15.02585
89.72101	339.5462	15.02587
89.75434	339.5790	15.02574
89.78766	339.6139	15.02581
89.82100	339.6470	15.02588
89.85434	339.6800	15.02586
89.88766	339.7144	15.02581
89.92100	339.7467	15.02581
89.95434	339.7794	15.02583
89.98750	339.8128	15.02584
90.02084	339.8450	15.02583
90.05418	339.8787	15.02573
90.08750	339.9135	15.02573
90.12084	339.9478	15.02594
90.15418	339.9798	15.02603
90.18750	340.0135	15.02591
90.22082	340.0478	15.02588
90.25416	340.0812	15.02587
90.28750	340.1136	15.02590
90.32082	340.1455	15.02590
90.35416	340.1794	15.02591
90.38750	340.2112	15.02589
90.42082	340.2456	15.02584
90.45418	340.2810	15.02589
90.48750	340.3142	15.02599
90.52084	340.3464	15.02598
90.55418	340.3794	15.02591
90.58750	340.4133	15.02602
90.62084	340.4450	15.02608
90.65418	340.4791	15.02604
90.68768	340.5125	15.02600
90.72101	340.5448	15.02597
90.75434	340.5762	15.02581
90.78766	340.6111	15.02592
90.82100	340.6443	15.02597
90.85434	340.6784	15.02600
90.88766	340.7127	15.02605
90.92100	340.7430	15.02616
90.95434	340.7777	15.02609
90.98766	340.8106	15.02608
91.02101	340.8435	15.02609
91.05434	340.8775	15.02609
91.08768	340.9105	15.02606
91.12101	340.9436	15.02608
91.15434	340.9769	15.02608
91.18768	341.0113	15.02611
91.22101	341.0437	15.02612
91.25434	341.0782	15.02604
91.28766	341.1120	15.02613
91.32100	341.1445	15.02614
91.35434	341.1769	15.02605
91.38766	341.2100	15.02603
91.42118	341.2434	15.02599
91.45450	341.2764	15.02598
91.48782	341.3121	15.02608
91.52118	341.3455	15.02626
91.55450	341.3797	15.02619
91.58782	341.4112	15.02622
91.62118	341.4430	15.02622
91.65450	341.4765	15.02623
91.68750	341.5098	15.02621
91.72082	341.5426	15.02614
91.75416	341.5764	15.02602
91.78750	341.6110	15.02611
91.82082	341.6434	15.02618
91.85434	341.6766	15.02616
91.88766	341.7122	15.02616
91.92100	341.7448	15.02628
91.95434	341.7777	15.02628
91.98766	341.8125	15.02623
92.02101	341.8458	15.02627
92.05434	341.8787	15.02630
92.08768	341.9121	15.02631
92.12101	341.9462	15.02635
92.15434	341.9786	15.02635
92.18768	342.0132	15.02629
92.22266	342.0478	15.02632
92.25766	342.0816	15.02638
92.29101	342.1150	15.02638
92.32434	342.1502	15.02642
92.35766	342.1830	15.02650
92.39200	342.2156	15.02644
92.42618	342.2498	15.02635
92.45950	342.2837	15.02644
92.49282	342.3180	15.02639
92.52618	342.3509	15.02635
92.56032	342.3847	15.02639
92.59418	342.4184	15.02640
92.62750	342.4534	15.02638
92.66082	342.4880	15.02642
92.69434	342.5209	15.02636
92.72766	342.5550	15.02633
92.76100	342.5883	15.02636
92.79434	342.6223	15.02646
92.82766	342.6548	15.02646
92.86100	342.6876	15.02641
92.89434	342.7210	15.02638
92.92766	342.7535	15.02632
92.96100	342.7874	15.02640
92.99432	342.8208	15.02643
93.02766	342.8528	15.02637
93.06100	342.8870	15.02636
93.09432	342.9204	15.02642
93.12782	342.9534	15.02643
93.16116	342.9860	15.02640
93.19449	343.0182	15.02642
93.22784	343.0542	15.02634
93.26118	343.0871	15.02639
93.29450	343.1206	15.02640
93.32750	343.1558	15.02642
93.36082	343.1857	15.02648
93.39416	343.2208	15.02637
93.42766	343.2539	15.02643
93.46100	343.2863	15.02647
93.49432	343.3206	15.02646
93.52766	343.3532	15.02654
93.56100	343.3853	15.02647
93.59432	343.4182	15.02648
93.62768	343.4511	15.02647
93.66101	343.4865	15.02660
93.69434	343.5212	15.02679
93.72766	343.5533	15.02676
93.76118	343.5872	15.02663
93.79450	343.6196	15.02664
93.82782	343.6528	15.02664
93.86118	343.6864	15.02662
93.89416	343.7199	15.02658
93.92750	343.7517	15.02653
93.96082	343.7859	15.02655
93.99416	343.8200	15.02656
94.02766	343.8525	15.02661
94.06100	343.8856	15.02646
94.09432	343.9172	15.02633
94.12768	343.9516	15.02636
94.16101	343.9846	15.02639
94.19434	344.0193	15.02646
94.22766	344.0531	15.02647
94.26100	344.0855	15.02648
94.29434	344.1191	15.02646
94.32766	344.1503	15.02650
94.36118	344.1843	15.02647
94.39450	344.2178	15.02642
94.42782	344.2517	15.02642
94.46118	344.2856	15.02653
94.49450	344.3183	15.02660
94.52782	344.3533	15.02664
94.56116	344.3869	15.02670
94.59449	344.4199	15.02658
94.62750	344.4544	15.02665
94.66082	344.4797	15.02659
94.69434	344.5245	15.02618
94.72766	344.5544	15.02655
94.76100	344.5876	15.02660
94.79434	344.6228	15.02682
94.82766	344.6515	15.02651
94.86100	344.6783	15.02638
94.89434	344.7239	15.02612
94.92766	344.7529	15.02662
94.96100	344.7884	15.02672
94.99432	344.8148	15.02666
95.02782	344.8532	15.02635
95.06116	344.8881	15.02663
95.09449	344.9191	15.02679
95.12782	344.9534	15.02668
95.16082	344.9867	15.02666
95.19416	345.0200	15.02668
95.22766	345.0519	15.02664
95.26100	345.0867	15.02665
95.29434	345.1181	15.02667
95.32766	345.1521	15.02660
95.36100	345.1868	15.02663
95.39434	345.2189	15.02662
95.42934	345.2524	15.02655
95.46434	345.2875	15.02660
95.49766	345.3226	15.02671
95.53100	345.3549	15.02672
95.56450	345.3909	15.02654
95.59866	345.4248	15.02652
95.63282	345.4589	15.02648
95.66618	345.4945	15.02656
95.69916	345.5240	15.02658
95.73250	345.5580	15.02645
95.76684	345.5918	15.02642
95.80100	345.6267	15.02648
95.83434	345.6600	15.02645
95.86766	345.6918	15.02641
95.90100	345.7252	15.02634
95.93516	345.7591	15.02641
95.96932	345.7940	15.02645
96.00268	345.8278	15.02656
96.03601	345.8616	15.02662
96.06934	345.8928	15.02656
96.10450	345.9278	15.02648
96.13950	345.9642	15.02657
96.17284	345.9963	15.02660
96.20618	346.0300	15.02652
96.23918	346.0634	15.02651
96.27332	346.0963	15.02643
96.30766	346.1308	15.02637
96.34101	346.1640	15.02638
96.37434	346.1966	15.02622
96.40766	346.2306	15.02623
96.44184	346.2654	15.02632
96.47600	346.2990	15.02637
96.50934	346.3351	15.02635
96.54266	346.3660	15.02639
96.57600	346.3985	15.02632
96.61016	346.4333	15.02634
96.64434	346.4690	15.02640
96.67782	346.5022	15.02631
96.71118	346.5340	15.02621
96.74450	346.5672	15.02612
96.77950	346.6022	15.02609
96.81450	346.6386	15.02614
96.84782	346.6714	15.02616
96.88084	346.7050	15.02618
96.91418	346.7391	15.02625
96.94850	346.7732	15.02626
96.98266	346.8080	15.02629
97.01600	346.8407	15.02629
97.04932	346.8740	15.02625
97.08266	346.9078	15.02622
97.11684	346.9414	15.02627
97.15100	346.9770	15.02639
97.18434	347.0100	15.02641
97.21766	347.0442	15.02631
97.25100	347.0766	15.02628
97.28516	347.1100	15.02629
97.31949	347.1430	15.02627
97.35284	347.1760	15.02619
97.38618	347.2109	15.02624
97.41950	347.2438	15.02625
97.45450	347.2794	15.02624
97.48918	347.3141	15.02628
97.52250	347.3468	15.02629
97.55600	347.3800	15.02625
97.58934	347.4122	15.02618
97.62350	347.4475	15.02618
97.65766	347.4806	15.02621
97.69101	347.5148	15.02615
97.72434	347.5481	15.02614
97.75766	347.5808	15.02614
97.79184	347.6156	15.02611
97.82600	347.6493	15.02620
97.85934	347.6833	15.02621
97.89266	347.7172	15.02620
97.92600	347.7502	15.02618
97.96016	347.7832	15.02623
97.99432	347.8181	15.02614
98.02782	347.8522	15.02616
98.06116	347.8864	15.02625
98.09449	347.9198	15.02622
98.12868	347.9531	15.02614
98.16282	347.9899	15.02626
98.19618	348.0235	15.02624
98.22916	348.0556	15.02612
98.26250	348.0901	15.02602
98.29766	348.1247	15.02611
98.33266	348.1587	15.02603
98.36600	348.1931	15.02600
98.39932	348.2252	15.02584
98.43266	348.2592	15.02590
98.46684	348.2918	15.02595
98.50100	348.3262	15.02592
98.53434	348.3606	15.02598
98.56766	348.3919	15.02586
98.60100	348.4252	15.02582
98.63516	348.4610	15.02590
98.66950	348.4963	15.02602
98.70282	348.5280	15.02606
98.73618	348.5637	15.02599
98.76950	348.5966	15.02606
98.80332	348.6291	15.02606
98.83750	348.6643	15.02604
98.87084	348.6965	15.02600
98.90434	348.7300	15.02596
98.93768	348.7640	15.02595
98.97101	348.7959	15.02594
99.00434	348.8291	15.02579
99.03766	348.8632	15.02580
99.07100	348.8980	15.02585
99.10434	348.9312	15.02580
99.13766	348.9644	15.02582
99.17100	348.9975	15.02580
99.20434	349.0319	15.02576
99.23766	349.0631	15.02578
99.27101	349.0934	15.02570
99.30434	349.1287	15.02563
99.33768	349.1616	15.02567
99.37118	349.1972	15.02568
99.40450	349.2301	15.02578
99.43782	349.2597	15.02564
99.47118	349.2945	15.02559
99.50450	349.3301	15.02563
99.53782	349.3636	15.02569
99.57118	349.3950	15.02561
99.60416	349.4274	15.02551
99.63750	349.4614	15.02546
99.67082	349.4950	15.02550
99.70418	349.5276	15.02544
99.73750	349.5603	15.02541
99.77084	349.5916	15.02528
99.80434	349.6280	15.02521
99.83768	349.6614	15.02534
99.87101	349.6943	15.02535
99.90434	349.7284	15.02541
99.93768	349.7620	15.02531
99.97101	349.7946	15.02528
100.0043	349.8260	15.02520
100.0377	349.8613	15.02505
100.0710	349.8971	15.02522
100.1043	349.9274	15.02533
100.1377	349.9609	15.02512
100.1710	349.9948	15.02506
100.2043	350.0269	15.02506
100.2377	350.0609	15.02504
100.2710	350.0938	15.02498
100.3043	350.1272	15.02505
100.3377	350.1610	15.02505
100.3710	350.1949	15.02496
100.4043	350.2283	15.02493
100.4377	350.2613	15.02485
100.4710	350.2946	15.02480
100.5043	350.3283	15.02476
100.5377	350.3616	15.02480
100.5710	350.3963	15.02478
100.6043	350.4300	15.02483
100.6377	350.4630	15.02488
100.6710	350.4963	15.02484
100.7043	350.5280	15.02474
100.7377	350.5623	15.02471
100.7710	350.5960	15.02468
100.8043	350.6278	15.02468
100.8377	350.6619	15.02460
100.8710	350.6954	15.02462
100.9043	350.7296	15.02461
100.9377	350.7630	15.02455
100.9710	350.7978	15.02459
101.0043	350.8303	15.02464
101.0377	350.8634	15.02458
101.0710	350.8985	15.02452
101.1043	350.9322	15.02454
101.1377	350.9666	15.02456
101.1710	350.9998	15.02465
101.2043	351.0340	15.02468
101.2377	351.0666	15.02463
101.2710	351.0994	15.02446
101.3043	351.1330	15.02438
101.3377	351.1653	15.02439
101.3710	351.1989	15.02436
101.4043	351.2328	15.02432
101.4377	351.2656	15.02432
101.4710	351.3000	15.02438
101.5052	351.3329	15.02431
101.5393	351.3685	15.02437
101.5727	351.4015	15.02437
101.6060	351.4351	15.02435
101.6393	351.4696	15.02438
101.6735	351.5011	15.02431
101.7077	351.5368	15.02418
101.7410	351.5689	15.02413
101.7743	351.6014	15.02408
101.8077	351.6346	15.02403
101.8418	351.6687	15.02398
101.8760	351.7016	15.02394
101.9093	351.7361	15.02384
101.9427	351.7685	15.02394
101.9760	351.8016	15.02396
102.0102	351.8350	15.02386
102.0443	351.8694	15.02375
102.0777	351.9026	15.02372
102.1110	351.9352	15.02367
102.1443	351.9690	15.02366
102.1793	352.0026	15.02359
102.2143	352.0384	15.02352
102.2478	352.0711	15.02348
102.2812	352.1038	15.02349
102.3145	352.1375	15.02351
102.3487	352.1714	15.02345
102.3828	352.2053	15.02342
102.4158	352.2377	15.02339
102.4492	352.2717	15.02336
102.4825	352.3054	15.02342
102.5168	352.3388	15.02341
102.5510	352.3719	15.02330
102.5843	352.4060	15.02332
102.6177	352.4398	15.02331
102.6510	352.4725	15.02322
102.6852	352.5078	15.02316
102.7193	352.5419	15.02324
102.7527	352.5743	15.02322
102.7860	352.6079	15.02319
102.8193	352.6430	15.02320
102.8543	352.6780	15.02326
102.8893	352.7134	15.02334
102.9227	352.7472	15.02336
102.9560	352.7822	15.02327
102.9893	352.8138	15.02306
103.0235	352.8479	15.02290
103.0577	352.8824	15.02286
103.0910	352.9170	15.02286
103.1243	352.9496	15.02285
103.1577	352.9831	15.02275
103.1918	353.0172	15.02276
103.2260	353.0498	15.02275
103.2593	353.0813	15.02259
103.2927	353.1168	15.02247
103.3260	353.1534	15.02266
103.3602	353.1856	15.02266
103.3943	353.2208	15.02263
103.4277	353.2534	15.02257
103.4610	353.2858	15.02255
103.4943	353.3181	15.02250
103.5295	353.3541	15.02253
103.5645	353.3893	15.02244
103.5978	353.4225	15.02235
103.6312	353.4564	15.02225
103.6645	353.4885	15.02224
103.6987	353.5238	15.02222
103.7325	353.5587	15.02224
103.7658	353.5912	15.02239
103.7993	353.6256	15.02230
103.8327	353.6584	15.02224
103.8668	353.6929	15.02216
103.9010	353.7280	15.02215
103.9343	353.7618	15.02216
103.9677	353.7940	15.02215
104.0010	353.8270	15.02205
104.0352	353.8606	15.02200
104.0693	353.8948	15.02191
104.1027	353.9283	15.02186
104.1360	353.9625	15.02200
104.1693	353.9950	15.02202
104.2045	354.0300	15.02185
104.2395	354.0641	15.02168
104.2728	354.0980	15.02159
104.3062	354.1320	15.02162
104.3395	354.1660	15.02151
104.3737	354.1989	15.02152
104.4078	354.2316	15.02137
104.4412	354.2662	15.02140
104.4742	354.3000	15.02141
104.5075	354.3334	15.02133
104.5408	354.3666	15.02125
104.5742	354.3984	15.02115
104.6077	354.4322	15.02111
104.6410	354.4662	15.02114
104.6743	354.5006	15.02115
104.7077	354.5334	15.02120
104.7410	354.5634	15.02104
104.7743	354.5975	15.02085
104.8077	354.6315	15.02090
104.8410	354.6650	15.02088
104.8743	354.6970	15.02082
104.9077	354.7320	15.02075
104.9410	354.7648	15.02069
104.9743	354.7970	15.02060
105.0077	354.8303	15.02053
105.0410	354.8633	15.02054
105.0743	354.8977	15.02057
105.1078	354.9307	15.02051
105.1412	354.9655	15.02042
105.1745	354.9971	15.02031
105.2078	355.0332	15.02029
105.2412	355.0636	15.02021
105.2745	355.0956	15.01999
105.3078	355.1308	15.01998
105.3412	355.1656	15.02006
105.3745	355.1988	15.02009
105.4078	355.2315	15.01999
105.4412	355.2660	15.01993
105.4745	355.2992	15.01990
105.5078	355.3325	15.01985
105.5412	355.3657	15.01980
105.5745	355.3997	15.01972
105.6078	355.4350	15.01968
105.6412	355.4673	15.01975
105.6742	355.4994	15.01964
105.7075	355.5332	15.01956
105.7408	355.5656	15.01953
105.7742	355.5986	15.01949
105.8075	355.6338	15.01952
105.8410	355.6684	15.01952
105.8743	355.7016	15.01940
105.9077	355.7359	15.01931
105.9410	355.7692	15.01926
105.9743	355.8028	15.01923
106.0077	355.8350	15.01919
106.0410	355.8684	15.01914
106.0743	355.8998	15.01912
106.1077	355.9336	15.01901
106.1410	355.9675	15.01895
106.1743	356.0005	15.01888
106.2077	356.0320	15.01880
106.2410	356.0664	15.01875
106.2743	356.0993	15.01869
106.3077	356.1324	15.01869
106.3410	356.1655	15.01866
106.3743	356.1980	15.01854
106.4077	356.2305	15.01840
106.4410	356.2645	15.01831
106.4743	356.2974	15.01828
106.5077	356.3312	15.01825
106.5410	356.3647	15.01820
106.5743	356.3990	15.01816
106.6077	356.4332	15.01809
106.6410	356.4664	15.01816
106.6743	356.4996	15.01811
106.7077	356.5350	15.01810
106.7410	356.5700	15.01804
106.7743	356.6037	15.01793
106.8077	356.6390	15.01800
106.8410	356.6693	15.01799
106.8743	356.6984	15.01758
106.9077	356.7341	15.01739
106.9410	356.7672	15.01741
106.9743	356.8004	15.01742
107.0077	356.8346	15.01734
107.0410	356.8670	15.01724
107.0752	356.9018	15.01714
107.1093	356.9354	15.01719
107.1427	356.9680	15.01714
107.1760	357.0010	15.01700
107.2093	357.0350	15.01689
107.2435	357.0691	15.01688
107.2776	357.1025	15.01679
107.3110	357.1356	15.01671
107.3443	357.1685	15.01661
107.3777	357.2020	15.01658
107.4127	357.2346	15.01646
107.4478	357.2716	15.01640
107.4812	357.3044	15.01651
107.5145	357.3374	15.01649
107.5478	357.3708	15.01644
107.5820	357.4071	15.01645
107.6162	357.4428	15.01639
107.6495	357.4760	15.01634
107.6828	357.5128	15.01634
107.7162	357.5472	15.01626
107.7502	357.5804	15.01608
107.7843	357.6136	15.01593
107.8177	357.6476	15.01584
107.8510	357.6818	15.01575
107.8843	357.7138	15.01581
107.9187	357.7456	15.01563
107.9528	357.7802	15.01553
107.9862	357.8137	15.01554
108.0195	357.8472	15.01544
108.0528	357.8798	15.01537
108.0870	357.9130	15.01520
108.1212	357.9465	15.01504
108.1545	357.9806	15.01496
108.1878	358.0125	15.01491
108.2212	358.0442	15.01483
108.2562	358.0808	15.01475
108.2912	358.1156	15.01475
108.3245	358.1472	15.01457
108.3575	358.1806	15.01432
108.3908	358.2140	15.01427
108.4250	358.2478	15.01426
108.4592	358.2805	15.01417
108.4925	358.3136	15.01412
108.5258	358.3472	15.01396
108.5593	358.3824	15.01398
108.5935	358.4182	15.01410
108.6277	358.4519	15.01402
108.6610	358.4846	15.01386
108.6943	358.5187	15.01373
108.7277	358.5515	15.01366
108.7610	358.5848	15.01355
108.7943	358.6184	15.01354
108.8276	358.6521	15.01342
108.8610	358.6850	15.01331
108.8943	358.7175	15.01321
108.9276	358.7515	15.01299
108.9610	358.7864	15.01301
108.9943	358.8238	15.01314
109.0276	358.8529	15.01320
109.0610	358.8844	15.01291
109.0943	358.9176	15.01264
109.1275	358.9520	15.01256
109.1608	358.9884	15.01249
109.1942	359.0220	15.01242
109.2275	359.0536	15.01218
109.2608	359.0887	15.01207
109.2942	359.1216	15.01208
109.3278	359.1578	15.01205
109.3612	359.1884	15.01211
109.3945	359.2222	15.01190
109.4278	359.2562	15.01177
109.4612	359.2899	15.01174
109.4945	359.3236	15.01166
109.5278	359.3563	15.01165
109.5612	359.3900	15.01146
109.5945	359.4226	15.01126
109.6278	359.4551	15.01114
109.6612	359.4887	15.01106
109.6945	359.5206	15.01096
109.7278	359.5561	15.01072
109.7612	359.5885	15.01070
109.7945	359.6211	15.01065
109.8278	359.6569	15.01069
109.8612	359.6896	15.01059
109.8945	359.7242	15.01064
109.9278	359.7556	15.01057
109.9612	359.7858	15.01028
109.9943	359.8190	15.00997
110.0276	359.8517	15.00988
110.0610	359.8875	15.00990
110.0943	359.9205	15.00977
110.1277	359.9540	15.00956
110.1610	359.9876	15.00939
110.1943	360.0210	15.00929
110.2277	360.0540	15.00924
110.2610	360.0863	15.00914
110.2943	360.1198	15.00896
110.3276	360.1535	15.00889
110.3610	360.1878	15.00889
110.3943	360.2197	15.00883
110.4276	360.2536	15.00864
110.4610	360.2866	15.00855
110.4943	360.3206	15.00842
110.5276	360.3538	15.00834
110.5610	360.3872	15.00832
110.5943	360.4206	15.00823
110.6277	360.4530	15.00804
110.6610	360.4862	15.00786
110.6943	360.5197	15.00773
110.7275	360.5541	15.00768
110.7608	360.5875	15.00758
110.7942	360.6204	15.00739
110.8275	360.6533	15.00720
110.8612	360.6866	15.00708
110.8945	360.7169	15.00701
110.9278	360.7522	15.00666
110.9612	360.7872	15.00664
110.9945	360.8184	15.00666
111.0278	360.8548	15.00659
111.0612	360.8863	15.00666
111.0945	360.9203	15.00648
111.1278	360.9544	15.00634
111.1612	360.9870	15.00615
111.1945	361.0196	15.00586
111.2278	361.0550	15.00578
111.2610	361.0840	15.00560
111.2943	361.1200	15.00530
111.3276	361.1532	15.00540
111.3610	361.1855	15.00530
111.3943	361.2183	15.00516
111.4276	361.2510	15.00497
111.4627	361.2874	15.00485
111.4977	361.3209	15.00473
111.5310	361.3559	15.00462
111.5643	361.3889	15.00452
111.5977	361.4200	15.00425
111.6318	361.4553	15.00409
111.6660	361.4896	15.00401
111.6993	361.5232	15.00386
111.7327	361.5558	15.00370
111.7660	361.5904	15.00359
111.8002	361.6224	15.00353
111.8343	361.6571	15.00330
111.8677	361.6906	15.00313
111.9010	361.7250	15.00300
111.9343	361.7574	15.00281
111.9685	361.7920	15.00270
112.0027	361.8264	15.00256
112.0360	361.8591	15.00234
112.0693	361.8932	15.00221
112.1027	361.9261	15.00204
112.1377	361.9600	15.00184
112.1727	361.9966	15.00165
112.2060	362.0290	15.00154
112.2393	362.0619	15.00138
112.2727	362.0955	15.00126
112.3077	362.1287	15.00110
112.3427	362.1637	15.00076
112.3760	362.1988	15.00059
112.4093	362.2334	15.00050
112.4427	362.2683	15.00044
112.4760	362.3008	15.00031
112.5093	362.3350	15.00009
112.5427	362.3674	14.99994
112.5760	362.4002	14.99974
112.6093	362.4334	14.99957
112.6434	362.4675	14.99940
112.6775	362.5012	14.99921
112.7110	362.5355	14.99900
112.7443	362.5706	14.99891
112.7776	362.6020	14.99883
112.8110	362.6355	14.99862
112.8443	362.6660	14.99806
112.8777	362.7035	14.99829
112.9110	362.7370	14.99819
112.9443	362.7722	14.99829
112.9777	362.8002	14.99784
113.0110	362.8338	14.99752
113.0443	362.8678	14.99736
113.0776	362.9021	14.99725
113.1110	362.9350	14.99715
113.1443	362.9693	14.99694
113.1776	363.0012	14.99677
113.2110	363.0338	14.99664
113.2443	363.0703	14.99644
113.2776	363.1030	14.99629
113.3110	363.1359	14.99611
113.3443	363.1677	14.99583
113.3777	363.2016	14.99554
113.4110	363.2355	14.99534
113.4443	363.2726	14.99523
113.4777	363.3025	14.99525
113.5110	363.3372	14.99491
113.5443	363.3688	14.99468
113.5776	363.4024	14.99443
113.6110	363.4356	14.99430
113.6443	363.4660	14.99382
113.6776	363.5018	14.99374
113.7110	363.5366	14.99361
113.7443	363.5698	14.99368
113.7776	363.6019	14.99300
113.8110	363.6346	14.99282
113.8443	363.6686	14.99262
113.8777	363.7006	14.99237
113.9110	363.7339	14.99208
113.9443	363.7675	14.99186
113.9777	363.8015	14.99168
114.0110	363.8360	14.99144
114.0443	363.8684	14.99118
114.0776	363.9000	14.99092
114.1110	363.9348	14.99069
114.1443	363.9690	14.99061
114.1776	364.0033	14.99041
114.2110	364.0367	14.99022
114.2443	364.0702	14.98995
114.2776	364.1048	14.98969
114.3110	364.1356	14.98942
114.3443	364.1688	14.98907
114.3777	364.2037	14.98878
114.4110	364.2372	14.98864
114.4443	364.2684	14.98841
114.4777	364.3021	14.98818
114.5110	364.3355	14.98797
114.5443	364.3684	14.98770
114.5776	364.4024	14.98738
114.6110	364.4356	14.98718
114.6443	364.4678	14.98679
114.6778	364.5024	14.98653
114.7112	364.5356	14.98628
114.7445	364.5691	14.98610
114.7778	364.6026	14.98588
114.8108	364.6350	14.98562
114.8442	364.6678	14.98535
114.8775	364.7000	14.98511
114.9108	364.7336	14.98481
114.9443	364.7684	14.98446
114.9777	364.8019	14.98422
115.0110	364.8346	14.98392
115.0443	364.8695	14.98351
115.0776	364.9071	14.98334
115.1110	364.9395	14.98336
115.1443	364.9710	14.98302
115.1776	365.0053	14.98262
115.2108	365.0387	14.98238
115.2442	365.0724	14.98207
115.2775	365.1054	14.98176
115.3108	365.1385	14.98143
115.3453	365.1720	14.98103
115.3795	365.2072	14.98069
115.4128	365.2406	14.98043
115.4462	365.2749	14.98014
115.4795	365.3081	14.97989
115.5145	365.3414	14.97956
115.5495	365.3773	14.97921
115.5828	365.4089	14.97896
115.6162	365.4419	14.97867
115.6495	365.4749	14.97834
115.6837	365.5093	14.97806
115.7178	365.5442	14.97772
115.7512	365.5758	14.97748
115.7845	365.6077	14.97702
115.8178	365.6435	14.97663
115.8520	365.6771	14.97638
115.8858	365.7102	14.97601
115.9192	365.7441	14.97550
115.9528	365.7802	14.97538
115.9862	365.8118	14.97511
116.0203	365.8456	14.97468
116.0545	365.8791	14.97436
116.0878	365.9138	14.97402
116.1212	365.9469	14.97369
116.1545	365.9806	14.97341
116.1895	366.0160	14.97298
116.2245	366.0526	14.97253
116.2578	366.0851	14.97221
116.2912	366.1163	14.97178
116.3243	366.1508	14.97127
116.3585	366.1853	14.97102
116.3927	366.2192	14.97069
116.4260	366.2525	14.97036
116.4593	366.2844	14.96992
116.4927	366.3183	14.96952
116.5268	366.3519	14.96912
116.5610	366.3858	14.96878
116.5943	366.4201	14.96843
116.6277	366.4522	14.96808
116.6610	366.4868	14.96766
116.6960	366.5198	14.96718
116.7312	366.5556	14.96667
116.7645	366.5908	14.96630
116.7978	366.6227	14.96604
116.8312	366.6538	14.96552
116.8653	366.6887	14.96502
116.8995	366.7238	14.96465
116.9328	366.7566	14.96422
116.9662	366.7915	14.96396
116.9995	366.8238	14.96356
117.0334	366.8570	14.96310
117.0675	366.8900	14.96257
117.1008	366.9253	14.96210
117.1343	366.9590	14.96173
117.1677	366.9903	14.96124
117.2018	367.0262	14.96075
117.2360	367.0601	14.96038
117.2693	367.0924	14.95988
117.3026	367.1250	14.95936
117.3360	367.1582	14.95879
117.3702	367.1937	14.95834
117.4043	367.2278	14.95792
117.4377	367.2636	14.95757
117.4710	367.2936	14.95718
117.5043	367.3261	14.95656
117.5393	367.3633	14.95590
117.5743	367.3983	14.95536
117.6077	367.4312	14.95477
117.6410	367.4638	14.95421
117.6743	367.4985	14.95368
117.7085	367.5328	14.95334
117.7427	367.5644	14.95278
117.7760	367.5990	14.95210
117.8093	367.6341	14.95158
117.8428	367.6662	14.95109
117.8770	367.6997	14.95052
117.9112	367.7340	14.94994
117.9445	367.7662	14.94937
117.9778	367.8032	14.94869
118.0112	367.8356	14.94815
118.0453	367.8710	14.94749
118.0795	367.9054	14.94703
118.1128	367.9372	14.94664
118.1462	367.9720	14.94595
118.1795	368.0046	14.94536
118.2145	368.0395	14.94464
118.2495	368.0746	14.94388
118.2825	368.1083	14.94328
118.3158	368.1417	14.94266
118.3492	368.1744	14.94211
118.3835	368.2079	14.94152
118.4177	368.2405	14.94096
118.4510	368.2740	14.94028
118.4843	368.3076	14.93958
118.5177	368.3419	14.93888
118.5518	368.3764	14.93821
118.5860	368.4085	14.93750
118.6193	368.4426	14.93678
118.6526	368.4757	14.93609
118.6860	368.5078	14.93534
118.7210	368.5442	14.93453
118.7560	368.5782	14.93375
118.7893	368.6120	14.93298
118.8227	368.6465	14.93225
118.8560	368.6803	14.93152
118.8902	368.7148	14.93075
118.9243	368.7467	14.92988
118.9578	368.7809	14.92910
118.9912	368.8141	14.92831
119.0245	368.8489	14.92752
119.0587	368.8844	14.92680
119.0928	368.9167	14.92594
119.1258	368.9491	14.92508
119.1592	368.9822	14.92418
119.1925	369.0158	14.92329
119.2258	369.0486	14.92232
119.2593	369.0824	14.92130
119.2927	369.1156	14.92033
119.3260	369.1498	14.91942
119.3593	369.1856	14.91853
119.3927	369.2172	14.91765
119.4260	369.2508	14.91660
119.4593	369.2840	14.91565
119.4927	369.3176	14.91467
119.5260	369.3520	14.91362
119.5593	369.3859	14.91266
119.5927	369.4177	14.91170
119.6260	369.4502	14.91063
119.6593	369.4851	14.90945
119.6927	369.5170	14.90819
119.7260	369.5508	14.90700
119.7595	369.5842	14.90582
119.7928	369.6169	14.90458
119.8262	369.6523	14.90332
119.8595	369.6843	14.90212
119.8928	369.7178	14.90082
119.9262	369.7506	14.89949
119.9592	369.7830	14.89806
119.9925	369.8158	14.89664
120.0258	369.8492	14.89523
120.0593	369.8828	14.89375
120.0927	369.9160	14.89225
120.1260	369.9496	14.89070
120.1593	369.9847	14.88919
120.1927	370.0170	14.88757
120.2260	370.0498	14.88588
120.2593	370.0850	14.88412
120.2927	370.1185	14.88249
120.3260	370.1515	14.88076
120.3593	370.1850	14.87887
120.3927	370.2196	14.87702
120.4260	370.2530	14.87517
120.4593	370.2840	14.87315
120.4927	370.3216	14.87106
120.5260	370.3546	14.86902
120.5593	370.3914	14.86690
120.5927	370.4222	14.86486
120.6260	370.4565	14.86260
120.6593	370.4894	14.86031
120.6927	370.5221	14.85795
120.7260	370.5562	14.85550
120.7593	370.5905	14.85314
120.7927	370.6240	14.85089
120.8260	370.6570	14.84848
120.8593	370.6916	14.84587
120.8927	370.7229	14.84315
120.9260	370.7584	14.84030
120.9593	370.7911	14.83769
120.9927	370.8230	14.83497
121.0260	370.8580	14.83219
121.0593	370.8888	14.82946
121.0928	370.9226	14.82653
121.1262	370.9550	14.82378
121.1595	370.9880	14.82086
121.1928	371.0222	14.81798
121.2262	371.0524	14.81490
121.2595	371.0842	14.81166
121.2928	371.1190	14.80845
121.3258	371.1516	14.80531
121.3592	371.1852	14.80199
121.3925	371.2208	14.79867
121.4258	371.2507	14.79539
121.4592	371.2836	14.79178
121.4927	371.3172	14.78824
121.5260	371.3503	14.78465
121.5593	371.3836	14.78104
121.5927	371.4167	14.77732
121.6260	371.4480	14.77354
121.6593	371.4824	14.76970
121.6927	371.5147	14.76578
121.7260	371.5478	14.76183
121.7593	371.5839	14.75784
121.7927	371.6164	14.75378
121.8260	371.6487	14.74960
121.8593	371.6828	14.74555
121.8927	371.7176	14.74157
121.9268	371.7515	14.73763
121.9610	371.7849	14.73353
121.9942	371.8198	14.72947
122.0275	371.8519	14.72546
122.0608	371.8872	14.72136
122.0962	371.9219	14.71692
122.1312	371.9572	14.71238
122.1645	371.9920	14.70834
122.1978	372.0239	14.70428
122.2312	372.0567	14.70013
122.2653	372.0920	14.69607
122.2993	372.1265	14.69210
122.3327	372.1600	14.68811
122.3660	372.1925	14.68412
122.3993	372.2258	14.68021
122.4335	372.2590	14.67633
122.4677	372.2937	14.67232
122.5010	372.3261	14.66836
122.5343	372.3591	14.66441
122.5677	372.3928	14.66042
122.6018	372.4278	14.65641
122.6360	372.4622	14.65237
122.6693	372.4964	14.64837
122.7026	372.5313	14.64444
122.7360	372.5637	14.64057
122.7702	372.5980	14.63650
122.8043	372.6325	14.63249
122.8377	372.6660	14.62837
122.8708	372.6996	14.62424
122.9042	372.7318	14.62011
122.9392	372.7676	14.61560
122.9745	372.8015	14.61102
123.0078	372.8355	14.60688
123.0412	372.8682	14.60284
123.0745	372.9015	14.59881
123.1087	372.9358	14.59481
123.1428	372.9696	14.59070
123.1762	373.0035	14.58658
123.2093	373.0362	14.58241
123.2427	373.0703	14.57834
123.2768	373.1038	14.57429
123.3110	373.1370	14.57024
123.3443	373.1702	14.56626
123.3777	373.2040	14.56215
123.4110	373.2372	14.55808
123.4460	373.2720	14.55352
123.4810	373.3060	14.54906
123.5143	373.3396	14.54506
123.5477	373.3727	14.54101
123.5810	373.4040	14.53697
123.6152	373.4386	14.53293
123.6493	373.4713	14.52893
123.6827	373.5061	14.52484
123.7160	373.5392	14.52072
123.7493	373.5732	14.51655
123.7835	373.6075	14.51260
123.8177	373.6421	14.50854
123.8510	373.6742	14.50447
123.8843	373.7071	14.50038
123.9177	373.7402	14.49625
123.9518	373.7746	14.49210
123.9860	373.8078	14.48793
124.0193	373.8422	14.48371
124.0526	373.8748	14.47954
124.0860	373.9094	14.47538
124.1202	373.9434	14.47119
124.1543	373.9782	14.46712
124.1877	374.0125	14.46304
124.2210	374.0458	14.45907
124.2543	374.0785	14.45515
124.2893	374.1130	14.45082
124.3242	374.1498	14.44646
124.3575	374.1844	14.44261
124.3908	374.2160	14.43884
124.4242	374.2508	14.43515
124.4575	374.2832	14.43154
124.4908	374.3162	14.42789
124.5242	374.3502	14.42430
124.5575	374.3833	14.42090
124.5908	374.4161	14.41754
124.6242	374.4498	14.41426
124.6575	374.4834	14.41106
124.6908	374.5161	14.40798
124.7242	374.5481	14.40498
124.7577	374.5825	14.40199
124.7910	374.6148	14.39927
124.8243	374.6470	14.39635
124.8577	374.6815	14.39351
124.8910	374.7145	14.39093
124.9243	374.7490	14.38840
124.9577	374.7810	14.38604
124.9910	374.8134	14.38372
125.0243	374.8458	14.38152
125.0577	374.8805	14.37937
125.0910	374.9135	14.37728
125.1243	374.9463	14.37528
125.1577	374.9792	14.37341
125.1910	375.0130	14.37158
125.2243	375.0464	14.36983
125.2577	375.0795	14.36815
125.2912	375.1130	14.36649
125.3245	375.1459	14.36495
125.3578	375.1808	14.36356
125.3912	375.2106	14.36225
125.4245	375.2463	14.36082
125.4578	375.2790	14.35974
125.4912	375.3146	14.35869
125.5245	375.3460	14.35772
125.5578	375.3794	14.35661
125.5908	375.4141	14.35574
125.6242	375.4483	14.35486
125.6575	375.4822	14.35408
125.6908	375.5140	14.35326
125.7242	375.5485	14.35242
125.7577	375.5825	14.35178
125.7910	375.6154	14.35116
125.8243	375.6503	14.35051
125.8577	375.6820	14.34988
125.8910	375.7148	14.34922
125.9243	375.7480	14.34852
125.9577	375.7816	14.34786
125.9910	375.8133	14.34729
126.0243	375.8515	14.34682
126.0577	375.8840	14.34651
126.0910	375.9184	14.34597
126.1243	375.9500	14.34548
126.1577	375.9838	14.34496
126.1910	376.0164	14.34451
126.2243	376.0514	14.34410
126.2577	376.0855	14.34367
126.2910	376.1198	14.34333
126.3243	376.1525	14.34290
126.3577	376.1842	14.34255
126.3910	376.2186	14.34226
126.4243	376.2530	14.34199
126.4577	376.2864	14.34163
126.4910	376.3187	14.34130
126.5243	376.3510	14.34092
126.5578	376.3850	14.34065
126.5912	376.4184	14.34046
126.6245	376.4510	14.34010
126.6578	376.4845	14.33980
126.6912	376.5175	14.33954
126.7245	376.5495	14.33928
126.7575	376.5826	14.33898
126.7908	376.6164	14.33877
126.8242	376.6490	14.33852
126.8575	376.6826	14.33816
126.8908	376.7187	14.33811
126.9243	376.7495	14.33799
126.9577	376.7835	14.33772
126.9910	376.8168	14.33751
127.0243	376.8494	14.33730
127.0577	376.8839	14.33704
127.0910	376.9175	14.33691
127.1243	376.9510	14.33672
127.1585	376.9862	14.33651
127.1927	377.0195	14.33640
127.2260	377.0528	14.33620
127.2593	377.0870	14.33602
127.2927	377.1205	14.33590
127.3268	377.1534	14.33570
127.3610	377.1884	14.33548
127.3943	377.2217	14.33533
127.4276	377.2561	14.33520
127.4610	377.2893	14.33502
127.4950	377.3220	14.33483
127.5292	377.3563	14.33469
127.5625	377.3890	14.33455
127.5958	377.4204	14.33441
127.6292	377.4534	14.33421
127.6627	377.4868	14.33402
127.6960	377.5203	14.33392
127.7293	377.5525	14.33383
127.7627	377.5847	14.33369
127.7960	377.6178	14.33355
127.8293	377.6512	14.33340
127.8626	377.6840	14.33327
127.8960	377.7173	14.33310
127.9293	377.7519	14.33297
127.9627	377.7832	14.33287
127.9960	377.8175	14.33273
128.0293	377.8513	14.33263
128.0627	377.8846	14.33257
128.0960	377.9170	14.33248
128.1293	377.9512	14.33232
128.1627	377.9842	14.33218
128.1960	378.0175	14.33204
128.2294	378.0509	14.33194
128.2628	378.0852	14.33183
128.2962	378.1191	14.33181
128.3295	378.1506	14.33168
128.3628	378.1842	14.33156
128.3962	378.2187	14.33151
128.4295	378.2518	14.33145
128.4628	378.2852	14.33131
128.4962	378.3190	14.33126
128.5295	378.3531	14.33113
128.5628	378.3856	14.33105
128.5958	378.4193	14.33083
128.6292	378.4560	14.33064
128.6625	378.4912	14.33067
128.6958	378.5270	14.33061
128.7294	378.5576	14.33061
128.7627	378.5922	14.33044
128.7960	378.6242	14.33038
128.8293	378.6566	14.33024
128.8627	378.6910	14.33019
128.8960	378.7233	14.33012
128.9293	378.7566	14.33000
128.9626	378.7880	14.32986
128.9960	378.8220	14.32981
129.0293	378.8564	14.32982
129.0627	378.8899	14.32969
129.0960	378.9238	14.32959
129.1293	378.9580	14.32964
129.1627	378.9914	14.32944
129.1960	379.0235	14.32945
129.2294	379.0565	14.32928
129.2627	379.0864	14.32908
129.2960	379.1227	14.32892
129.3293	379.1568	14.32898
129.3627	379.1900	14.32902
129.3960	379.2236	14.32911
129.4293	379.2552	14.32899
129.4626	379.2900	14.32878
129.4960	379.3231	14.32883
129.5293	379.3569	14.32876
129.5628	379.3914	14.32889
129.5962	379.4233	14.32881
129.6295	379.4548	14.32872
129.6628	379.4883	14.32861
129.6962	379.5194	14.32846
129.7295	379.5542	14.32841
129.7625	379.5870	14.32839
129.7958	379.6193	14.32833
129.8292	379.6513	14.32825
129.8625	379.6858	14.32803
129.8960	379.7200	14.32803
129.9293	379.7528	14.32803
129.9626	379.7844	14.32799
129.9960	379.8183	14.32790
130.0293	379.8520	14.32781
130.0627	379.8851	14.32782
130.0960	379.9193	14.32778
130.1293	379.9530	14.32776
130.1627	379.9855	14.32775
130.1968	380.0170	14.32762
130.2310	380.0520	14.32740
130.2643	380.0854	14.32734
130.2977	380.1224	14.32746
130.3310	380.1534	14.32746
130.3653	380.1868	14.32733
130.3995	380.2200	14.32729
130.4328	380.2538	14.32722
130.4662	380.2885	14.32715
130.4995	380.3233	14.32712
130.5337	380.3570	14.32713
130.5678	380.3900	14.32704
130.6012	380.4256	14.32690
130.6345	380.4555	14.32692
130.6678	380.4874	14.32669
130.7020	380.5252	14.32660
130.7362	380.5603	14.32670
130.7695	380.5915	14.32673
130.8025	380.6250	14.32664
130.8358	380.6588	14.32658
130.8700	380.6950	14.32663
130.9043	380.7282	14.32666
130.9377	380.7613	14.32656
130.9710	380.7948	14.32646
131.0043	380.8278	14.32645
131.0393	380.8627	14.32638
131.0744	380.8979	14.32631
131.1077	380.9311	14.32622
131.1410	380.9639	14.32610
131.1743	380.9990	14.32611
131.2085	381.0324	14.32612
131.2427	381.0658	14.32603
131.2762	381.0994	14.32602
131.3095	381.1338	14.32596
131.3428	381.1675	14.32593
131.3770	381.2031	14.32596
131.4112	381.2374	14.32596
131.4445	381.2683	14.32580
131.4778	381.3044	14.32584
131.5108	381.3394	14.32592
131.5442	381.3720	14.32594
131.5776	381.4028	14.32587
131.6110	381.4359	14.32569
131.6444	381.4724	14.32554
131.6777	381.5060	14.32568
131.7110	381.5371	14.32558
131.7444	381.5732	14.32549
131.7776	381.6062	14.32548
131.8110	381.6422	14.32545
131.8444	381.6750	14.32548
131.8777	381.7103	14.32547
131.9110	381.7403	14.32550
131.9442	381.7758	14.32533
131.9775	381.8070	14.32528
132.0108	381.8389	14.32515
132.0442	381.8750	14.32507
132.0775	381.9078	14.32518
132.1108	381.9406	14.32520
132.1442	381.9739	14.32515
132.1777	382.0070	14.32518
132.2110	382.0378	14.32521
132.2444	382.0725	14.32512
132.2776	382.1051	14.32526
132.3110	382.1362	14.32516
132.3444	382.1709	14.32506
132.3777	382.2048	14.32502
132.4110	382.2356	14.32500
132.4444	382.2692	14.32484
132.4776	382.3030	14.32485
132.5110	382.3356	14.32484
132.5443	382.3684	14.32485
132.5776	382.4010	14.32483
132.6110	382.4340	14.32474
132.6444	382.4698	14.32473
132.6777	382.5041	14.32483
132.7110	382.5370	14.32484
132.7444	382.5690	14.32468
132.7776	382.6045	14.32462
132.8110	382.6377	14.32474
132.8444	382.6728	14.32482
132.8777	382.7048	14.32477
132.9110	382.7378	14.32475
132.9444	382.7706	14.32470
132.9776	382.8040	14.32464
133.0110	382.8382	14.32462
133.0445	382.8709	14.32464
133.0778	382.9032	14.32463
133.1112	382.9369	14.32452
133.1445	382.9696	14.32454
133.1778	383.0027	14.32454
133.2112	383.0366	14.32448
133.2442	383.0700	14.32451
133.2775	383.1014	14.32449
133.3108	383.1332	14.32435
133.3444	383.1663	14.32427
133.3777	383.2002	14.32424
133.4110	383.2334	14.32422
133.4444	383.2688	14.32422
133.4776	383.3022	14.32435
133.5110	383.3345	14.32427
133.5443	383.3687	14.32424
133.5776	383.4030	14.32425
133.6110	383.4354	14.32424
133.6444	383.4688	14.32417
133.6777	383.5016	14.32418
133.7110	383.5355	14.32412
133.7444	383.5696	14.32410
133.7776	383.6028	14.32413
133.8110	383.6352	14.32407
133.8444	383.6694	14.32402
133.8777	383.7019	14.32402
133.9110	383.7344	14.32398
133.9444	383.7695	14.32393
133.9776	383.8027	14.32394
134.0112	383.8346	14.32387
134.0445	383.8679	14.32388
134.0786	383.9028	14.32385
134.1128	383.9378	14.32391
134.1462	383.9716	14.32390
134.1792	384.0036	14.32400
134.2125	384.0370	14.32390
134.2477	384.0752	14.32399
134.2827	384.1096	14.32422
134.3160	384.1375	14.32387
134.3494	384.1720	14.32381
134.3827	384.2065	14.32386
134.4168	384.2398	14.32388
134.4510	384.2744	14.32388
134.4843	384.3080	14.32388
134.5177	384.3408	14.32392
134.5510	384.3727	14.32388
134.5852	384.4066	14.32378
134.6194	384.4406	14.32369
134.6526	384.4738	14.32365
134.6862	384.5073	14.32366
134.7195	384.5424	14.32369
134.7545	384.5748	14.32367
134.7895	384.6101	14.32346
134.8228	384.6446	14.32347
134.8562	384.6781	14.32354
134.8892	384.7122	14.32352
134.9234	384.7475	14.32359
134.9575	384.7796	14.32359
134.9910	384.8148	14.32352
135.0244	384.8476	14.32361
135.0577	384.8811	14.32342
135.0918	384.9150	14.32345
135.1260	384.9464	14.32338
135.1593	384.9812	14.32319
135.1927	385.0146	14.32323
135.2260	385.0477	14.32319
135.2602	385.0822	14.32314
135.2945	385.1192	14.32316
135.3278	385.1537	14.32332
135.3612	385.1855	14.32334
135.3945	385.2190	14.32324
135.4295	385.2535	14.32321
135.4642	385.2888	14.32311
135.4975	385.3234	14.32306
135.5308	385.3550	14.32299
135.5642	385.3868	14.32294
135.5985	385.4238	14.32297
135.6327	385.4612	14.32318
135.6660	385.4926	14.32314
135.6994	385.5248	14.32314
135.7327	385.5603	14.32311
135.7668	385.5916	14.32311
135.8010	385.6257	14.32292
135.8344	385.6596	14.32288
135.8677	385.6940	14.32290
135.9010	385.7275	14.32294
135.9352	385.7611	14.32292
135.9694	385.7963	14.32298
136.0027	385.8291	14.32302
136.0360	385.8624	14.32297
136.0694	385.8958	14.32296
136.1044	385.9297	14.32291
136.1394	385.9643	14.32280
136.1727	385.9995	14.32286
136.2060	386.0316	14.32284
136.2395	386.0653	14.32281
136.2737	386.1002	14.32294
136.3078	386.1328	14.32285
136.3412	386.1660	14.32280
136.3745	386.1998	14.32280
136.4078	386.2330	14.32285
136.4416	386.2666	14.32288
136.4758	386.3020	14.32288
136.5092	386.3356	14.32293
136.5427	386.3676	14.32290
136.5760	386.4011	14.32284
136.6102	386.4347	14.32282
136.6444	386.4696	14.32274
136.6777	386.5018	14.32264
136.7110	386.5367	14.32261
136.7444	386.5736	14.32263
136.7785	386.6085	14.32275
136.8127	386.6424	14.32295
136.8460	386.6731	14.32286
136.8794	386.7072	14.32277
136.9127	386.7399	14.32284
136.9476	386.7742	14.32276
136.9827	386.8088	14.32270
137.0160	386.8429	14.32267
137.0493	386.8780	14.32269
137.0827	386.9104	14.32266
137.1168	386.9456	14.32268
137.1510	386.9796	14.32275
137.1843	387.0132	14.32273
137.2177	387.0470	14.32269
137.2510	387.0817	14.32267
137.2852	387.1141	14.32269
137.3194	387.1480	14.32257
137.3526	387.1816	14.32261
137.3862	387.2152	14.32266
137.4195	387.2480	14.32269
137.4545	387.2825	14.32275
137.4895	387.3186	14.32265
137.5228	387.3510	14.32265
137.5562	387.3836	14.32260
137.5895	387.4170	14.32257
137.6234	387.4526	14.32264
137.6575	387.4838	14.32260
137.6908	387.5170	14.32253
137.7242	387.5512	14.32250
137.7575	387.5850	14.32252
137.7908	387.6180	14.32251
137.8244	387.6510	14.32248
137.8577	387.6836	14.32244
137.8908	387.7170	14.32241
137.9242	387.7516	14.32241
137.9575	387.7840	14.32234
137.9908	387.8200	14.32239
138.0242	387.8516	14.32246
138.0575	387.8840	14.32241
138.0908	387.9184	14.32236
138.1242	387.9519	14.32239
138.1575	387.9861	14.32248
138.1908	388.0192	14.32248
138.2242	388.0530	14.32246
138.2575	388.0869	14.32244
138.2908	388.1184	14.32255
138.3242	388.1524	14.32249
138.3575	388.1840	14.32242
138.3908	388.2178	14.32250
138.4242	388.2491	14.32250
138.4575	388.2837	14.32239
138.4908	388.3178	14.32250
138.5242	388.3515	14.32259
138.5575	388.3834	14.32249
138.5908	388.4161	14.32238
138.6243	388.4496	14.32231
138.6577	388.4799	14.32226
138.6910	388.5161	14.32216
138.7244	388.5486	14.32226
138.7577	388.5807	14.32228
138.7910	388.6163	14.32238
138.8244	388.6480	14.32231
138.8577	388.6850	14.32237
138.8910	388.7160	14.32251
138.9243	388.7478	14.32232
138.9577	388.7809	14.32227
138.9910	388.8152	14.32234
139.0244	388.8480	14.32236
139.0577	388.8800	14.32222
139.0910	388.9149	14.32222
139.1243	388.9485	14.32232
139.1577	388.9816	14.32233
139.1910	389.0156	14.32229
139.2244	389.0488	14.32234
139.2577	389.0817	14.32239
139.2910	389.1150	14.32234
139.3244	389.1485	14.32233
139.3577	389.1808	14.32228
139.3910	389.2140	14.32220
139.4243	389.2469	14.32222
139.4577	389.2800	14.32218
139.4910	389.3144	14.32223
139.5244	389.3480	14.32225
139.5577	389.3813	14.32222
139.5910	389.4148	14.32223
139.6243	389.4472	14.32219
139.6577	389.4856	14.32220
139.6910	389.5163	14.32230
139.7245	389.5480	14.32228
139.7578	389.5796	14.32209
139.7912	389.6167	14.32198
139.8245	389.6494	14.32216
139.8578	389.6840	14.32224
139.8912	389.7169	14.32230
139.9245	389.7511	14.32236
139.9578	389.7820	14.32238
139.9912	389.8172	14.32224
140.0245	389.8496	14.32225
140.0578	389.8828	14.32214
140.0912	389.9156	14.32210
140.1242	389.9485	14.32207
140.1575	389.9823	14.32204
140.1908	390.0159	14.32199
140.2242	390.0481	14.32195
140.2575	390.0830	14.32199
140.2908	390.1155	14.32204
140.3244	390.1492	14.32204
140.3577	390.1830	14.32210
140.3910	390.2164	14.32211
140.4243	390.2489	14.32208
140.4577	390.2810	14.32202
140.4910	390.3132	14.32190
140.5244	390.3500	14.32181
140.5577	390.3813	14.32182
140.5910	390.4154	14.32180
140.6243	390.4472	14.32185
140.6577	390.4800	14.32174
140.6910	390.5140	14.32176
140.7244	390.5468	14.32172
140.7577	390.5803	14.32170
140.7910	390.6125	14.32169
140.8244	390.6489	14.32162
140.8577	390.6826	14.32171
140.8912	390.7165	14.32190
140.9245	390.7476	14.32175
140.9578	390.7822	14.32166
140.9912	390.8168	14.32175
141.0245	390.8500	14.32192
141.0578	390.8819	14.32188
141.0912	390.9180	14.32188
141.1245	390.9504	14.32196
141.1578	390.9835	14.32189
141.1912	391.0160	14.32184
141.2245	391.0490	14.32186
141.2578	391.0817	14.32184
141.2912	391.1140	14.32183
141.3245	391.1484	14.32176
141.3575	391.1790	14.32177
141.3908	391.2150	14.32165
141.4242	391.2495	14.32176
141.4575	391.2815	14.32184
141.4908	391.3158	14.32178
141.5244	391.3472	14.32176
141.5577	391.3812	14.32179
141.5910	391.4142	14.32172
141.6243	391.4490	14.32172
141.6577	391.4838	14.32178
141.6910	391.5174	14.32184
141.7244	391.5494	14.32189
141.7577	391.5840	14.32187
141.7910	391.6174	14.32189
141.8244	391.6495	14.32181
141.8577	391.6835	14.32176
141.8910	391.7165	14.32178
141.9243	391.7491	14.32169
141.9577	391.7832	14.32168
141.9910	391.8166	14.32170
142.0244	391.8497	14.32168
142.0577	391.8830	14.32162
142.0910	391.9170	14.32158
142.1243	391.9506	14.32160
142.1577	391.9860	14.32160
142.1910	392.0178	14.32168
142.2244	392.0511	14.32167
142.2577	392.0848	14.32164
142.2910	392.1160	14.32156
142.3244	392.1489	14.32160
142.3577	392.1836	14.32158
142.3910	392.2175	14.32158
142.4243	392.2493	14.32151
142.4577	392.2863	14.32165
142.4910	392.3178	14.32173
142.5244	392.3513	14.32156
142.5577	392.3855	14.32158
142.5910	392.4190	14.32164
142.6243	392.4515	14.32165
142.6577	392.4822	14.32157
142.6910	392.5175	14.32158
142.7244	392.5511	14.32162
142.7577	392.5854	14.32156
142.7910	392.6204	14.32161
142.8244	392.6518	14.32154
142.8578	392.6853	14.32146
142.8912	392.7180	14.32146
142.9245	392.7525	14.32142
142.9578	392.7862	14.32146
142.9912	392.8189	14.32150
143.0245	392.8528	14.32155
143.0578	392.8871	14.32161
143.0912	392.9178	14.32166
143.1242	392.9502	14.32146
143.1575	392.9840	14.32150
143.1908	393.0164	14.32148
143.2242	393.0500	14.32145
143.2575	393.0832	14.32144
143.2910	393.1149	14.32144
143.3244	393.1515	14.32137
143.3577	393.1893	14.32184
143.3910	393.2128	14.32192
143.4243	393.2500	14.32141
143.4577	393.2833	14.32153
143.4910	393.3160	14.32154
143.5244	393.3498	14.32151
143.5577	393.3824	14.32149
143.5910	393.4166	14.32145
143.6243	393.4520	14.32152
143.6577	393.4844	14.32161
143.6910	393.5173	14.32157
143.7244	393.5494	14.32149
143.7577	393.5836	14.32147
143.7910	393.6163	14.32151
143.8244	393.6500	14.32147
143.8577	393.6822	14.32151
143.8910	393.7150	14.32138
143.9243	393.7496	14.32137
143.9577	393.7830	14.32144
143.9910	393.8160	14.32147
144.0244	393.8480	14.32143
144.0577	393.8820	14.32139
144.0910	393.9152	14.32144
144.1243	393.9474	14.32136
144.1577	393.9818	14.32135
144.1910	394.0152	14.32140
144.2245	394.0486	14.32132
144.2578	394.0835	14.32141
144.2912	394.1176	14.32142
144.3245	394.1512	14.32146
144.3578	394.1831	14.32154
144.3912	394.2170	14.32146
144.4245	394.2489	14.32139
144.4578	394.2826	14.32134
144.4908	394.3158	14.32138
144.5242	394.3496	14.32143
144.5575	394.3855	14.32152
144.5908	394.4192	14.32169
144.6242	394.4527	14.32167
144.6575	394.4853	14.32167
144.6908	394.5160	14.32155
144.7242	394.5485	14.32144
144.7575	394.5822	14.32139
144.7908	394.6160	14.32141
144.8242	394.6506	14.32142
144.8575	394.6822	14.32137
144.8908	394.7159	14.32124
144.9242	394.7485	14.32128
144.9575	394.7831	14.32137
144.9908	394.8176	14.32148
145.0242	394.8492	14.32144
145.0575	394.8834	14.32131
145.0908	394.9167	14.32129
145.1242	394.9504	14.32127
145.1575	394.9842	14.32132
145.1908	395.0191	14.32137
145.2242	395.0517	14.32136
145.2575	395.0862	14.32129
145.2908	395.1197	14.32125
145.3242	395.1535	14.32121
145.3575	395.1862	14.32124
145.3908	395.2178	14.32122
145.4242	395.2515	14.32117
145.4575	395.2848	14.32119
145.4908	395.3202	14.32121
145.5242	395.3506	14.32116
145.5577	395.3846	14.32120
145.5910	395.4174	14.32124
145.6243	395.4507	14.32130
145.6577	395.4818	14.32136
145.6910	395.5166	14.32126
145.7244	395.5502	14.32132
145.7577	395.5824	14.32129
145.7910	395.6162	14.32125
145.8244	395.6494	14.32131
145.8577	395.6825	14.32139
145.8918	395.7156	14.32132
145.9260	395.7496	14.32130
145.9594	395.7830	14.32120
145.9927	395.8152	14.32117
146.0262	395.8497	14.32120
146.0603	395.8839	14.32126
146.0945	395.9184	14.32126
146.1278	395.9516	14.32127
146.1612	395.9840	14.32119
146.1942	396.0183	14.32109
146.2283	396.0537	14.32114
146.2627	396.0879	14.32122
146.2960	396.1217	14.32134
146.3294	396.1531	14.32127
146.3627	396.1886	14.32120
146.3960	396.2213	14.32134
146.4294	396.2536	14.32126
146.4626	396.2862	14.32114
146.4960	396.3207	14.32116
146.5293	396.3515	14.32109
146.5627	396.3858	14.32112
146.5960	396.4202	14.32116
146.6294	396.4540	14.32120
146.6627	396.4880	14.32126
146.6960	396.5192	14.32113
146.7294	396.5528	14.32112
146.7628	396.5864	14.32111
146.7962	396.6213	14.32103
146.8295	396.6545	14.32105
146.8628	396.6864	14.32117
146.8962	396.7206	14.32111
146.9295	396.7540	14.32114
146.9628	396.7871	14.32111
146.9958	396.8209	14.32110
147.0292	396.8520	14.32111
147.0625	396.8879	14.32101
147.0958	396.9209	14.32109
147.1292	396.9546	14.32110
147.1625	396.9882	14.32115
147.1958	397.0198	14.32113
147.2292	397.0543	14.32102
147.2627	397.0887	14.32113
147.2960	397.1206	14.32107
147.3294	397.1545	14.32104
147.3627	397.1893	14.32108
147.3960	397.2235	14.32110
147.4294	397.2570	14.32100
147.4626	397.2911	14.32096
147.4958	397.3238	14.32096
147.5292	397.3578	14.32094
147.5625	397.3900	14.32092
147.5958	397.4237	14.32093
147.6292	397.4570	14.32091
147.6625	397.4898	14.32091
147.6960	397.5228	14.32091
147.7294	397.5560	14.32092
147.7627	397.5894	14.32095
147.7960	397.6223	14.32088
147.8294	397.6538	14.32081
147.8627	397.6878	14.32079
147.8960	397.7215	14.32083
147.9294	397.7536	14.32085
147.9626	397.7904	14.32084
147.9960	397.8202	14.32111
148.0293	397.8546	14.32100
148.0627	397.8879	14.32101
148.0960	397.9228	14.32109
148.1294	397.9548	14.32119
148.1627	397.9862	14.32112
148.1960	398.0206	14.32106
148.2294	398.0553	14.32107
148.2627	398.0891	14.32106
148.2960	398.1220	14.32103
148.3294	398.1571	14.32104
148.3627	398.1904	14.32110
148.3960	398.2230	14.32106
148.4295	398.2580	14.32102
148.4628	398.2912	14.32108
148.4962	398.3232	14.32110
148.5295	398.3580	14.32096
148.5628	398.3892	14.32105
148.5962	398.4210	14.32096
148.6295	398.4563	14.32080
148.6628	398.4892	14.32081
148.6958	398.5221	14.32085
148.7292	398.5540	14.32085
148.7625	398.5875	14.32082
148.7958	398.6216	14.32083
148.8292	398.6558	14.32082
148.8625	398.6887	14.32085
148.8960	398.7222	14.32091
148.9302	398.7568	14.32094
148.9644	398.7906	14.32098
148.9977	398.8246	14.32104
149.0310	398.8578	14.32104
149.0644	398.8916	14.32104
149.0985	398.9252	14.32103
149.1327	398.9600	14.32103
149.1660	398.9915	14.32104
149.1994	399.0244	14.32097
149.2327	399.0581	14.32102
149.2668	399.0935	14.32105
149.3010	399.1280	14.32102
149.3344	399.1617	14.32104
149.3677	399.1970	14.32102
149.4010	399.2318	14.32106
149.4352	399.2643	14.32102
149.4694	399.2989	14.32100
149.5027	399.3306	14.32102
149.5360	399.3640	14.32101
149.5694	399.3976	14.32098
149.6035	399.4317	14.32096
149.6375	399.4648	14.32092
149.6708	399.4995	14.32092
149.7042	399.5328	14.32100
149.7375	399.5652	14.32106
149.7725	399.6008	14.32104
149.8078	399.6361	14.32106
149.8412	399.6680	14.32106
149.8745	399.7009	14.32103
149.9078	399.7339	14.32097
149.9420	399.7680	14.32096
